PPG,ABP,SBP,DBP
0.4413489365459329,102.92620343531485,144.44575835187675,124.05292271758752
0.5132965153571494,101.30465990703073,144.44575835187675,124.05292271758752
0.5831353712233666,100.09568523890908,144.44575835187675,124.05292271758752
0.6512775553949426,99.0305244323794,144.44575835187675,124.05292271758752
0.7157291549029401,98.03240889261184,144.44575835187675,124.05292271758752
0.7750628278658462,97.1523495726276,144.44575835187675,124.05292271758752
0.8291421432865214,96.29300867910418,144.44575835187675,124.05292271758752
0.8761497223516673,95.43954589563349,144.44575835187675,124.05292271758752
0.9163523715916172,95.10288025623744,144.44575835187675,124.05292271758752
0.9486370838504912,95.30215783486052,144.44575835187675,124.05292271758752
0.9730685666974312,95.779907721065,144.44575835187675,124.05292271758752
0.9899240809301132,96.605707575909,144.44575835187675,124.05292271758752
0.9986316099831142,97.3444143097892,144.44575835187675,124.05292271758752
1.0,97.91951994410776,144.44575835187675,124.05292271758752
0.9943706016292618,98.19103386115442,144.44575835187675,124.05292271758752
0.982092030929398,97.98195208751837,144.44575835187675,124.05292271758752
0.9640494249329646,97.608547980226,144.44575835187675,124.05292271758752
0.9404069401930942,96.95960512067232,144.44575835187675,124.05292271758752
0.9123663453264468,96.43851226636625,144.44575835187675,124.05292271758752
0.880409489765593,96.10400737088264,144.44575835187675,124.05292271758752
0.8450194316024408,95.72914868747444,144.44575835187675,124.05292271758752
0.8070382035782965,95.43220651150834,144.44575835187675,124.05292271758752
0.7669675779881799,94.99883645359488,144.44575835187675,124.05292271758752
0.7255680372466472,94.4134205369954,144.44575835187675,124.05292271758752
0.6832324901027322,93.76532737153576,144.44575835187675,124.05292271758752
0.6406147062908909,93.0001147322447,144.44575835187675,124.05292271758752
0.5980903961195883,92.36533338189166,144.44575835187675,124.05292271758752
0.555979998337166,91.87978439976416,144.44575835187675,124.05292271758752
0.5149736240150652,91.56216452098188,144.44575835187675,124.05292271758752
0.4754606127666545,91.49211302870027,144.44575835187675,124.05292271758752
0.4376032986842229,91.3544414670694,144.44575835187675,124.05292271758752
0.4018489231270102,91.1682416170356,144.44575835187675,124.05292271758752
0.3684938989258245,90.77355358648518,144.44575835187675,124.05292271758752
0.3378872953821962,90.07997998289405,144.44575835187675,124.05292271758752
0.3099024175288822,89.86194910506916,144.44575835187675,124.05292271758752
0.2848290969309806,90.48980587446044,144.44575835187675,124.05292271758752
0.2627413816824604,92.81106351806346,144.44575835187675,124.05292271758752
0.2436213446500966,97.33742893397584,144.44575835187675,124.05292271758752
0.227098233803569,103.46236535939718,144.44575835187675,124.05292271758752
0.2131577828547371,110.8111783869289,144.44575835187675,124.05292271758752
0.2014823272080715,118.25367348390007,144.44575835187675,124.05292271758752
0.1919261247555737,125.313079672715,144.44575835187675,124.05292271758752
0.1838214524977403,131.66074534556745,144.44575835187675,124.05292271758752
0.1769266232229574,136.75855401899724,144.44575835187675,124.05292271758752
0.1708411095762821,140.67125191544142,144.44575835187675,124.05292271758752
0.1651916848334159,142.98440221898312,144.44575835187675,124.05292271758752
0.1594744518652908,144.26558199714597,144.44575835187675,124.05292271758752
0.1533011204244651,144.44575835187675,144.44575835187675,124.05292271758752
0.1464838902255558,144.04592092196486,144.44575835187675,124.05292271758752
0.1386233457254382,143.22059907143085,144.44575835187675,124.05292271758752
0.1299452045361313,142.13596924444556,144.44575835187675,124.05292271758752
0.1202347644850058,141.04035415738466,144.44575835187675,124.05292271758752
0.1096573968186295,139.5214427484608,144.44575835187675,124.05292271758752
0.098251909735522,137.73029550357214,144.44575835187675,124.05292271758752
0.0867928643438727,135.11540420072393,144.44575835187675,124.05292271758752
0.0754186702138167,131.60182859695897,144.44575835187675,124.05292271758752
0.0649658172873021,127.75733657981776,144.44575835187675,124.05292271758752
0.0558185781941921,124.18120994887116,144.44575835187675,124.05292271758752
0.0491677588209646,122.05430315842656,144.44575835187675,124.05292271758752
0.0455962931658817,121.99589879410026,144.44575835187675,124.05292271758752
0.0458867274881928,123.02190075522006,144.44575835187675,124.05292271758752
0.0508040549131604,124.05292271758752,144.44575835187675,124.05292271758752
0.0609788196675401,123.33728600154733,144.44575835187675,124.05292271758752
0.0771587289009916,119.93296850942356,144.44575835187675,124.05292271758752
0.0993842881831527,114.74611621937748,144.44575835187675,124.05292271758752
0.1281326645362841,108.69220057846132,144.44575835187675,124.05292271758752
0.1628354870847122,103.57298960667872,144.44575835187675,124.05292271758752
0.2033893293911568,100.3071197011545,144.44575835187675,124.05292271758752
0.2489472182345757,99.04012709663228,144.44575835187675,124.05292271758752
0.2989140657414598,99.32199983463023,144.44575835187675,124.05292271758752
0.3515566539122432,99.60616168445476,144.44575835187675,124.05292271758752
0.4060348308571458,99.22828474738088,144.44575835187675,124.05292271758752
0.4607093871536984,97.69013426282112,144.44575835187675,124.05292271758752
0.5144184803933679,95.25071501644533,144.44575835187675,124.05292271758752
0.5656176354883564,93.25463682826714,144.44575835187675,124.05292271758752
0.6129864090358412,92.28838784265577,144.44575835187675,124.05292271758752
0.6556067581736617,92.8904809702918,144.44575835187675,124.05292271758752
0.6921546102833369,94.94158327398506,144.44575835187675,124.05292271758752
0.7224738117411176,97.25399234664552,144.44575835187675,124.05292271758752
0.7456511555696598,99.31270901222284,144.44575835187675,124.05292271758752
0.761714800290963,100.43408078975864,144.44575835187675,124.05292271758752
0.7702776148179133,100.33003151550425,144.44575835187675,124.05292271758752
0.7719706936509506,99.68365659240231,144.44575835187675,124.05292271758752
0.7667511902885547,98.59447796660086,144.44575835187675,124.05292271758752
0.755303452739803,97.62673327478728,144.44575835187675,124.05292271758752
0.7378328477146782,97.07377854069398,144.44575835187675,124.05292271758752
0.715452566738758,96.60874689742712,144.44575835187675,124.05292271758752
0.6885844694735787,96.37028017765562,144.44575835187675,124.05292271758752
0.6579300053845477,95.93723589892248,144.44575835187675,124.05292271758752
0.624123935386089,95.2670685403364,144.44575835187675,124.05292271758752
0.5879895046822894,94.53239743993998,144.44575835187675,124.05292271758752
0.550189803517027,93.61487336635342,144.44575835187675,124.05292271758752
0.5112410751680557,92.89762760842729,144.44575835187675,124.05292271758752
0.4718349527243214,92.3991012375499,144.44575835187675,124.05292271758752
0.4325082274252144,92.1546998861604,144.44575835187675,124.05292271758752
0.3938860431483955,92.2806999149484,144.44575835187675,124.05292271758752
0.3564073624773934,92.42421994259904,144.44575835187675,124.05292271758752
0.3206564201659356,92.62604151395804,144.44575835187675,124.05292271758752
0.2868003262544534,92.4983887844573,144.44575835187675,124.05292271758752
0.255341479007062,91.9308888837554,144.44575835187675,124.05292271758752
0.226544810744307,91.10016199603427,144.44575835187675,124.05292271758752
0.2007979142070203,90.01108704134732,144.44575835187675,124.05292271758752
0.1778734836411238,89.83588634122395,144.44575835187675,124.05292271758752
0.1580666653097679,90.95001910492748,144.44575835187675,124.05292271758752
0.1412899439666626,93.94549059603524,144.44575835187675,124.05292271758752
0.1276566597067008,99.13345209026718,144.44575835187675,124.05292271758752
0.1166565455097055,105.6781502999512,144.44575835187675,124.05292271758752
0.1082907285522474,113.12582547987628,144.44575835187675,124.05292271758752
0.1021518803410146,120.53620259555228,144.44575835187675,124.05292271758752
0.0980606804333588,127.33339101579752,144.44575835187675,124.05292271758752
0.095272644647728,133.38464129094675,144.44575835187675,124.05292271758752
0.0934945700654382,138.0929824881476,144.44575835187675,124.05292271758752
0.0923815841610495,141.60512893273963,144.44575835187675,124.05292271758752
0.0915137135470808,143.53195143922696,144.44575835187675,124.05292271758752
0.0904783266082741,144.67850382762725,144.44575835187675,124.05292271758752
0.0888831205841743,144.99445077027093,144.99445077027093,124.05292271758752
0.0865400737840085,144.74956946128648,144.99445077027093,124.05292271758752
0.083070930519802,144.1510277297699,144.99445077027093,124.05292271758752
0.0787378397190197,142.96283103085247,144.99445077027093,124.05292271758752
0.0732812227506913,141.35226332950035,144.99445077027093,124.05292271758752
0.0670725928842978,139.44294132087836,144.99445077027093,124.05292271758752
0.0600583389759439,137.28627432429795,144.99445077027093,124.05292271758752
0.0531538128253173,135.08422897742582,144.99445077027093,124.05292271758752
0.0465150130492927,132.92931310251305,144.99445077027093,124.05292271758752
0.0409860351865105,130.83435588561375,144.99445077027093,124.05292271758752
0.0369972399737188,128.9125021422599,144.99445077027093,124.05292271758752
0.0357430516208103,126.80997082015864,144.99445077027093,124.05292271758752
0.0378360063910114,124.56273390531568,144.99445077027093,124.05292271758752
0.0439423886509196,122.25775680133717,144.99445077027093,124.05292271758752
0.0548352435133275,119.83039278902446,144.99445077027093,124.05292271758752
0.0709466645698227,117.29018989277102,144.99445077027093,124.05292271758752
0.0929772473386888,114.62732973494847,144.99445077027093,124.05292271758752
0.1208288688247046,111.90172258817768,144.99445077027093,124.05292271758752
0.1548846886022342,109.1136420747813,144.99445077027093,124.05292271758752
0.1943780220845111,106.53331444068672,144.99445077027093,124.05292271758752
0.2391780049149713,104.20507782121304,144.99445077027093,124.05292271758752
0.2882263208378414,102.0967052285447,144.99445077027093,124.05292271758752
0.3408933386157254,100.30604166259104,144.99445077027093,124.05292271758752
0.3954388003116421,98.80096629085944,144.99445077027093,124.05292271758752
0.4509547713422033,97.62696939921628,144.99445077027093,124.05292271758752
0.5058879102775254,96.68887699138286,144.99445077027093,124.05292271758752
0.5590429891657404,95.99832070005031,144.99445077027093,124.05292271758752
0.6090045483199369,95.49492368598986,144.99445077027093,124.05292271758752
0.6544673713861936,95.15447901886672,144.99445077027093,124.05292271758752
0.694689998587404,95.0136063155405,144.99445077027093,124.05292271758752
0.7284890567231985,95.04585401461144,144.99445077027093,124.05292271758752
0.7558145231066683,95.08885493226629,144.99445077027093,124.05292271758752
0.7759021094614275,95.11997707843436,144.99445077027093,124.05292271758752
0.7888475626277188,95.1805371912611,144.99445077027093,124.05292271758752
0.7943277150257402,95.21508129639366,144.99445077027093,124.05292271758752
0.7930888517134568,95.28930092024376,144.99445077027093,124.05292271758752
0.7850940848519151,95.38888855797003,144.99445077027093,124.05292271758752
0.7710987743263101,95.53309784066496,144.99445077027093,124.05292271758752
0.7513542750258163,95.73164158280213,144.99445077027093,124.05292271758752
0.726923640858622,95.8766238911576,144.99445077027093,124.05292271758752
0.698270008971327,95.9672254495151,144.99445077027093,124.05292271758752
0.6660633552217443,95.8554288494404,144.99445077027093,124.05292271758752
0.6309467828645814,95.49568774533849,144.99445077027093,124.05292271758752
0.5937265468534655,94.93513123011476,144.99445077027093,124.05292271758752
0.5550618095235239,94.11104236743542,144.99445077027093,124.05292271758752
0.5154895610392096,93.28350059955812,144.99445077027093,124.05292271758752
0.475696943764463,92.45464242332312,144.99445077027093,124.05292271758752
0.4360295213630445,91.7822913544971,144.99445077027093,124.05292271758752
0.3970958368677704,91.35403944842032,144.99445077027093,124.05292271758752
0.3593940364656417,91.02369218360629,144.99445077027093,124.05292271758752
0.3234510878258159,90.8705631117022,144.99445077027093,124.05292271758752
0.2893958921216825,90.51312483763172,144.99445077027093,124.05292271758752
0.2577101047096768,89.9203285732719,144.99445077027093,124.05292271758752
0.2286382310195253,89.31523875037405,144.99445077027093,124.05292271758752
0.2025405699829768,88.6469633382149,144.99445077027093,124.05292271758752
0.1792507105217824,88.79628542929821,144.99445077027093,124.05292271758752
0.159047811591223,90.10074259841797,144.99445077027093,124.05292271758752
0.1418509601611094,93.220503330469,144.99445077027093,124.05292271758752
0.1277808975891778,98.40326895888124,144.99445077027093,124.05292271758752
0.1162864004690312,104.81127215037424,144.99445077027093,124.05292271758752
0.1073697195181503,112.0439025536038,144.99445077027093,124.05292271758752
0.1006667751549392,119.19919757693148,144.99445077027093,124.05292271758752
0.095992181953585,125.73203888033298,144.99445077027093,124.05292271758752
0.0926536240052896,131.51822325037065,144.99445077027093,124.05292271758752
0.0903720022745946,135.96242631956645,144.99445077027093,124.05292271758752
0.088745335179968,139.15963583675529,144.99445077027093,124.05292271758752
0.0873701814168688,140.72015217337304,144.99445077027093,124.05292271758752
0.0857712808720103,141.36906211989017,141.36906211989017,124.05292271758752
0.0835439293765926,141.0823447043556,141.36906211989017,124.05292271758752
0.0805246396907328,140.27482908171805,141.36906211989017,124.05292271758752
0.0763137870002177,139.16114561998853,141.36906211989017,124.05292271758752
0.0711715127418138,137.6029718609085,141.36906211989017,124.05292271758752
0.06483216135709,135.8238331235824,141.36906211989017,124.05292271758752
0.057642058616632,133.71874424652842,141.36906211989017,124.05292271758752
0.0495399883620658,131.3754238129967,141.36906211989017,124.05292271758752
0.0414771275030021,128.94414326714903,141.36906211989017,124.05292271758752
0.0336014742347058,126.4712082034252,141.36906211989017,124.05292271758752
0.0267526503576812,124.01342088835158,141.36906211989017,124.05292271758752
0.0213657007625264,121.64925925460255,141.36906211989017,124.05292271758752
0.018603956693561,119.327142391431,141.36906211989017,124.05292271758752
0.0190778015392519,117.10459602313372,141.36906211989017,124.05292271758752
0.0235451426116818,114.85947568360116,141.36906211989017,124.05292271758752
0.0327787146282185,112.60114708178432,141.36906211989017,124.05292271758752
0.0473225391197914,110.19498353974429,141.36906211989017,124.05292271758752
0.0679141782606013,107.600825214489,141.36906211989017,124.05292271758752
0.0944745722126579,105.06073291760023,141.36906211989017,124.05292271758752
0.1274378348856884,102.53935418902104,141.36906211989017,124.05292271758752
0.1660767739039137,100.41228341428156,141.36906211989017,124.05292271758752
0.210291414418454,98.76412609981676,141.36906211989017,124.05292271758752
0.2590571153612999,97.4055037705738,141.36906211989017,124.05292271758752
0.3117567440011174,96.46899316787793,141.36906211989017,124.05292271758752
0.3665976652383004,95.67289881470002,141.36906211989017,124.05292271758752
0.4226454096053449,95.01456487626744,141.36906211989017,124.05292271758752
0.4782987667616433,94.47154382132167,141.36906211989017,124.05292271758752
0.5323283186244386,93.9670270209643,141.36906211989017,124.05292271758752
0.5832655827222775,93.51808771651986,141.36906211989017,124.05292271758752
0.6297657261211319,93.07625280193623,141.36906211989017,124.05292271758752
0.670958530348054,92.72684706843742,141.36906211989017,124.05292271758752
0.7056181091363299,92.4522671722747,141.36906211989017,124.05292271758752
0.7335948451471119,92.36702671662904,141.36906211989017,124.05292271758752
0.7540832442910369,92.49459691470432,141.36906211989017,124.05292271758752
0.7671880384642399,92.76430574696454,141.36906211989017,124.05292271758752
0.7725712619207804,93.21360351568042,141.36906211989017,124.05292271758752
0.7709963333548495,93.56659278258336,141.36906211989017,124.05292271758752
0.7624563489701135,93.7974736942769,141.36906211989017,124.05292271758752
0.7477543189601941,93.96705342434994,141.36906211989017,124.05292271758752
0.7271677331214161,93.99114496689126,141.36906211989017,124.05292271758752
0.7019015828548737,93.89963997025468,141.36906211989017,124.05292271758752
0.6724632771428036,93.66348453352816,141.36906211989017,124.05292271758752
0.6396147212351337,93.30347527791706,141.36906211989017,124.05292271758752
0.6040747795962028,92.80970146740586,141.36906211989017,124.05292271758752
0.5666596822856185,92.23602491934456,141.36906211989017,124.05292271758752
0.5281006718543217,91.58683915741864,141.36906211989017,124.05292271758752
0.4890376341011223,90.82316032478155,141.36906211989017,124.05292271758752
0.4502156977032651,89.95814655279256,141.36906211989017,124.05292271758752
0.4120160421907766,89.29345964384784,141.36906211989017,124.05292271758752
0.3751161502453612,88.85691256397487,141.36906211989017,124.05292271758752
0.3399430614619061,88.51620167801639,141.36906211989017,124.05292271758752
0.3070684089694739,88.35886386236852,141.36906211989017,124.05292271758752
0.2765265787698505,88.02700339642776,141.36906211989017,124.05292271758752
0.2487981809071444,87.49784378890028,141.36906211989017,124.05292271758752
0.2240134899234473,86.99377708442731,141.36906211989017,124.05292271758752
0.2024959714765352,86.5178731431248,141.36906211989017,124.05292271758752
0.1838813413858001,86.96681261039254,141.36906211989017,124.05292271758752
0.1683752672602416,88.60198253355597,141.36906211989017,124.05292271758752
0.1557727948379066,91.96889130566996,141.36906211989017,124.05292271758752
0.1460827388631669,97.23915588066532,141.36906211989017,124.05292271758752
0.1387153484475138,103.590926041495,141.36906211989017,124.05292271758752
0.1335668697999812,110.69368291523888,141.36906211989017,124.05292271758752
0.1302008057540484,117.7347306509954,141.36906211989017,124.05292271758752
0.1283478943027442,124.21908335828329,141.36906211989017,124.05292271758752
0.1272866306086381,129.91100563752332,141.36906211989017,124.05292271758752
0.1266618671960014,134.26056968938764,141.36906211989017,124.05292271758752
0.1261946441862437,137.31718371576088,141.36906211989017,124.05292271758752
0.1254387574506043,138.68737916445787,141.36906211989017,124.05292271758752
0.1240738802094433,139.19147556684746,139.19147556684746,124.05292271758752
0.1217179050797907,138.8069304225121,139.19147556684746,124.05292271758752
0.1182828236465098,137.88256336263365,139.19147556684746,124.05292271758752
0.1134311961187623,136.65361535259632,139.19147556684746,124.05292271758752
0.1075174743371869,135.00324542605736,139.19147556684746,124.05292271758752
0.100343405458294,133.15048172440706,139.19147556684746,124.05292271758752
0.0923558812046905,131.09315638730524,139.19147556684746,124.05292271758752
0.0835718156018116,128.93398495241584,139.19147556684746,124.05292271758752
0.0749605089099695,126.6990406574277,139.19147556684746,124.05292271758752
0.0667477179664207,124.4590560382628,139.19147556684746,124.05292271758752
0.059807849934914,122.28605271611472,139.19147556684746,124.05292271758752
0.0546325603957649,120.23982968776856,139.19147556684746,124.05292271758752
0.0524223891684555,118.02713237828844,139.19147556684746,124.05292271758752
0.0538371789078961,115.67535372346045,139.19147556684746,124.05292271758752
0.0595256106120104,113.29202834060068,139.19147556684746,124.05292271758752
0.0702904342849642,110.82427182946836,139.19147556684746,124.05292271758752
0.0865239700788028,108.3177516625235,139.19147556684746,124.05292271758752
0.1089321815537336,105.77845559910996,139.19147556684746,124.05292271758752
0.1373743553137382,103.30334988614165,139.19147556684746,124.05292271758752
0.1721969891593288,100.91621821056997,139.19147556684746,124.05292271758752
0.2125908323592393,98.74551545276904,139.19147556684746,124.05292271758752
0.2583735403933306,96.84552558500133,139.19147556684746,124.05292271758752
0.3084292081179934,95.19805845179064,139.19147556684746,124.05292271758752
0.3620765784661606,93.86935754226089,139.19147556684746,124.05292271758752
0.4175137407866663,92.79450343330056,139.19147556684746,124.05292271758752
0.4737830331798598,92.00198516519998,139.19147556684746,124.05292271758752
0.5292869392347213,91.5739495051539,139.19147556684746,124.05292271758752
0.5827776399795778,91.51992220515328,139.19147556684746,124.05292271758752
0.632830883819402,91.53641285760362,139.19147556684746,124.05292271758752
0.6780958660990806,91.6219876019353,139.19147556684746,124.05292271758752
0.7178371929606623,91.78418145292372,139.19147556684746,124.05292271758752
0.7508624511552733,91.93818989496278,139.19147556684746,124.05292271758752
0.7771245471718522,92.12250245445397,139.19147556684746,124.05292271758752
0.7958722276594187,92.294763491743,139.19147556684746,124.05292271758752
0.8072133750475246,92.4668285499396,139.19147556684746,124.05292271758752
0.8108473323437282,92.6226654779114,139.19147556684746,124.05292271758752
0.8075461323424785,92.71933301090355,139.19147556684746,124.05292271758752
0.7973046194896024,92.74464738385002,139.19147556684746,124.05292271758752
0.7809280164851038,92.69415045851854,139.19147556684746,124.05292271758752
0.7586991724315506,92.54764193371923,139.19147556684746,124.05292271758752
0.7317581980575141,92.35486229329584,139.19147556684746,124.05292271758752
0.7006095822185495,92.10759848948288,139.19147556684746,124.05292271758752
0.6660260156999872,91.7802231581024,139.19147556684746,124.05292271758752
0.6287078399172021,91.37844896535957,139.19147556684746,124.05292271758752
0.5895897353076637,90.9373253407812,139.19147556684746,124.05292271758752
0.54940746594599,90.4561457857642,139.19147556684746,124.05292271758752
0.5087254035753951,89.91990852819237,139.19147556684746,124.05292271758752
0.4683158840302533,89.33676887417701,139.19147556684746,124.05292271758752
0.4286225138158162,88.71720616783233,139.19147556684746,124.05292271758752
0.3903237269728252,88.06270627550785,139.19147556684746,124.05292271758752
0.353857489632288,87.44295412990975,139.19147556684746,124.05292271758752
0.3198158791955878,86.86928701144328,139.19147556684746,124.05292271758752
0.2882376455999542,86.29893027389457,139.19147556684746,124.05292271758752
0.2596186193470753,85.75357846455913,139.19147556684746,124.05292271758752
0.2340455297889377,85.27072603945727,139.19147556684746,124.05292271758752
0.2118482066909207,84.90352044329113,139.19147556684746,124.05292271758752
0.1926779070736202,85.68638108184227,139.19147556684746,124.05292271758752
0.1767340033497743,87.87280726047256,139.19147556684746,124.05292271758752
0.1637681186468305,91.90625577102628,139.19147556684746,124.05292271758752
0.1537856635128564,97.84764916987704,139.19147556684746,124.05292271758752
0.1461149854058989,104.73622789850988,139.19147556684746,124.05292271758752
0.1406294789053252,112.16667894954004,139.19147556684746,124.05292271758752
0.136909502643387,119.35702603375786,139.19147556684746,124.05292271758752
0.1346513472774097,125.72869898123504,139.19147556684746,124.05292271758752
0.1331750254190619,131.1800582221331,139.19147556684746,124.05292271758752
0.1321136974367695,135.1324913015276,139.19147556684746,124.05292271758752
0.1311370807286817,137.72931608102147,139.19147556684746,124.05292271758752
0.1297970908584316,138.67883439655677,139.19147556684746,124.05292271758752
0.1277340679978642,138.8527933257883,138.8527933257883,124.05292271758752
0.124545837805797,138.2522260629467,138.8527933257883,124.05292271758752
0.1202090339888615,137.21410824141276,138.8527933257883,124.05292271758752
0.114370296942809,136.00502668499414,138.8527933257883,124.05292271758752
0.1074331444922237,134.4441284914218,138.8527933257883,124.05292271758752
0.0992125188862244,132.7594899894282,138.8527933257883,124.05292271758752
0.0901804727744264,130.8742825100892,138.8527933257883,124.05292271758752
0.0803770778779829,128.87216861619072,138.8527933257883,124.05292271758752
0.070842623073469,126.74266111748722,138.8527933257883,124.05292271758752
0.0618310502988889,124.52131907333754,138.8527933257883,124.05292271758752
0.0542198501016195,122.331424412712,138.8527933257883,124.05292271758752
0.04853806460837,120.20685159191866,138.8527933257883,124.05292271758752
0.0459301559382689,117.97347520043712,138.8527933257883,124.05292271758752
0.0470736794979095,115.66893729740316,138.8527933257883,124.05292271758752
0.0526516531029044,113.38236523609147,138.8527933257883,124.05292271758752
0.0634664400502882,111.09707658937704,138.8527933257883,124.05292271758752
0.0799473582226246,108.69801741764113,138.8527933257883,124.05292271758752
0.1028007945717075,106.19058325482344,138.8527933257883,124.05292271758752
0.1318322068653404,103.69570043202664,138.8527933257883,124.05292271758752
0.1673809467631726,101.1958262153676,138.8527933257883,124.05292271758752
0.2086097402484699,98.97699128492916,138.8527933257883,124.05292271758752
0.2553084523267939,97.09282850596114,138.8527933257883,124.05292271758752
0.3063495662680879,95.4076321335148,138.8527933257883,124.05292271758752
0.3610257897440615,94.01751434693576,138.8527933257883,124.05292271758752
0.4174739089582063,92.89537632449311,138.8527933257883,124.05292271758752
0.4747085488462919,92.0576143943326,138.8527933257883,124.05292271758752
0.5311188941452554,91.49897795232154,138.8527933257883,124.05292271758752
0.5854215436911046,91.22509148251616,138.8527933257883,124.05292271758752
0.6362234936447413,91.03162634979157,138.8527933257883,124.05292271758752
0.6821518537640047,90.90003873488725,138.8527933257883,124.05292271758752
0.7224257674831361,90.9083194897634,138.8527933257883,124.05292271758752
0.7558600587846934,90.99681661438429,138.8527933257883,124.05292271758752
0.7823599151997762,91.1094411209234,138.8527933257883,124.05292271758752
0.8011815022637229,91.22743996255286,138.8527933257883,124.05292271758752
0.8124919552798079,91.34509668914482,138.8527933257883,124.05292271758752
0.8160042493268241,91.4326372524581,138.8527933257883,124.05292271758752
0.8125347662364509,91.53247593706593,138.8527933257883,124.05292271758752
0.8021124623118322,91.62952993463502,138.8527933257883,124.05292271758752
0.7855494384590658,91.6657214049678,138.8527933257883,124.05292271758752
0.7631617843049208,91.6370076704903,138.8527933257883,124.05292271758752
0.7361367625625362,91.54440951807857,138.8527933257883,124.05292271758752
0.7050061737833621,91.36872802778068,138.8527933257883,124.05292271758752
0.6704921665437676,91.09390421463311,138.8527933257883,124.05292271758752
0.633320222935787,90.70743593379277,138.8527933257883,124.05292271758752
0.5942577057220336,90.27218666628012,138.8527933257883,124.05292271758752
0.5540245626285254,89.78210517971756,138.8527933257883,124.05292271758752
0.5132534515732485,89.18771256604158,138.8527933257883,124.05292271758752
0.4726689010751668,88.49753757754924,138.8527933257883,124.05292271758752
0.4326203257875636,87.88013879316912,138.8527933257883,124.05292271758752
0.3937676411512497,87.34356158620544,138.8527933257883,124.05292271758752
0.3565537244325683,86.8276140820673,138.8527933257883,124.05292271758752
0.3215319546428946,86.37840187379629,138.8527933257883,124.05292271758752
0.2887611012529419,85.93204158976586,138.8527933257883,124.05292271758752
0.2587175113091335,85.49172525519941,138.8527933257883,124.05292271758752
0.2315695393132307,85.08603345541725,138.8527933257883,124.05292271758752
0.2076481448343986,84.82544683153533,138.8527933257883,124.05292271758752
0.1866287618940932,85.86644427450771,138.8527933257883,124.05292271758752
0.1687359146756164,88.41339977537359,138.8527933257883,124.05292271758752
0.1537951219360818,92.73980237415492,138.8527933257883,124.05292271758752
0.141840584606756,98.79544547530746,138.8527933257883,124.05292271758752
0.1322956012916442,105.62070686626024,138.8527933257883,124.05292271758752
0.1250816622436523,112.8890413022129,138.8527933257883,124.05292271758752
0.1197588833436577,119.94525773748744,138.8527933257883,124.05292271758752
0.1160768826933928,126.26396738963828,138.8527933257883,124.05292271758752
0.1133015399276042,131.60852651968952,138.8527933257883,124.05292271758752
0.1110873873749621,135.4559740279733,138.8527933257883,124.05292271758752
0.1091420487501473,137.82294559641576,138.8527933257883,124.05292271758752
0.1070207865264367,138.49110441914718,138.49110441914718,124.05292271758752
0.1043969946110256,138.3861275763631,138.49110441914718,124.05292271758752
0.1008854345444966,137.55276845772545,138.49110441914718,124.05292271758752
0.0964052158270966,136.30171694219536,138.49110441914718,124.05292271758752
0.0906161502075312,134.94030398364373,138.49110441914718,124.05292271758752
0.0838953880773508,133.29793047143508,138.49110441914718,124.05292271758752
0.0760472996722998,131.62159768364074,138.49110441914718,124.05292271758752
0.0675538917919616,129.84515688084852,138.49110441914718,124.05292271758752
0.0584434347956586,128.06891628619132,138.49110441914718,124.05292271758752
0.0497241647270289,126.22534475374366,138.49110441914718,124.05292271758752
0.0416423017415828,124.35749207698134,138.49110441914718,124.05292271758752
0.0351009803750697,122.52247115537904,138.49110441914718,124.05292271758752
0.0306179371108537,120.73636922334128,138.49110441914718,124.05292271758752
0.0293960467521249,118.7137631376212,138.49110441914718,124.05292271758752
0.0321192732022643,116.45246285997094,138.49110441914718,124.05292271758752
0.0393910558986672,114.0931212902694,138.49110441914718,124.05292271758752
0.0520251004446329,111.5695786118022,138.49110441914718,124.05292271758752
0.0703403264552235,108.9238360871454,138.49110441914718,124.05292271758752
0.0949898056890555,106.16186935540958,138.49110441914718,124.05292271758752
0.1257514484522679,103.37999496278242,138.49110441914718,124.05292271758752
0.1628800372782737,100.60028290348978,138.49110441914718,124.05292271758752
0.2054677290436919,98.11010272626793,138.49110441914718,124.05292271758752
0.2532336295254097,95.97893539929002,138.49110441914718,124.05292271758752
0.3049716285232028,94.12532959420636,138.49110441914718,124.05292271758752
0.3599231236940708,92.66221873100253,138.49110441914718,124.05292271758752
0.4162236576918832,91.54875283473218,138.49110441914718,124.05292271758752
0.4728825720603944,90.82546666698856,138.49110441914718,124.05292271758752
0.5283231248059105,90.380774775446,138.49110441914718,124.05292271758752
0.58125969930988,90.2200367274659,138.49110441914718,124.05292271758752
0.6303934842118887,90.11965798800298,138.49110441914718,124.05292271758752
0.6743693436325261,90.03021898914388,138.49110441914718,124.05292271758752
0.7125859673711223,90.05424632069857,138.49110441914718,124.05292271758752
0.7439300936170224,90.1115832178632,138.49110441914718,124.05292271758752
0.768458575234279,90.23648336411652,138.49110441914718,124.05292271758752
0.7855175353063429,90.41326603825873,138.49110441914718,124.05292271758752
0.795301689075466,90.55130007668552,138.49110441914718,124.05292271758752
0.7975837741988092,90.63824245064932,138.49110441914718,124.05292271758752
0.7931935925353907,90.72825128206352,138.49110441914718,124.05292271758752
0.7821605951175417,90.79369681618442,138.49110441914718,124.05292271758752
0.7652818485953584,90.77953776558805,138.49110441914718,124.05292271758752
0.7428786938193732,90.67898681224732,138.49110441914718,124.05292271758752
0.7160115637438063,90.56415155088814,138.49110441914718,124.05292271758752
0.6851980011997528,90.42186008058457,138.49110441914718,124.05292271758752
0.6510937813530807,90.1977798672951,138.49110441914718,124.05292271758752
0.6143740586824781,89.89873695322525,138.49110441914718,124.05292271758752
0.5758256733241733,89.51352851633742,138.49110441914718,124.05292271758752
0.5361225851165043,89.02903557385133,138.49110441914718,124.05292271758752
0.4958474327315288,88.44818723625653,138.49110441914718,124.05292271758752
0.4556965206380356,87.7609717821752,138.49110441914718,124.05292271758752
0.4159836960079441,87.08876894891371,138.49110441914718,124.05292271758752
0.3773329585394639,86.43858134897725,138.49110441914718,124.05292271758752
0.3402523395794081,85.76744216342249,138.49110441914718,124.05292271758752
0.3052701572514825,85.108537628493,138.49110441914718,124.05292271758752
0.2724624584035611,84.50003446794894,138.49110441914718,124.05292271758752
0.2423097143493911,83.95304825624594,138.49110441914718,124.05292271758752
0.2149709257288553,83.59504501246695,138.49110441914718,124.05292271758752
0.1907821390787047,83.57640245752691,138.49110441914718,124.05292271758752
0.1694685192381382,85.02470477853319,138.49110441914718,124.05292271758752
0.1512601742789394,88.17807681094901,138.49110441914718,124.05292271758752
0.1359745827446464,93.14204369420683,138.49110441914718,124.05292271758752
0.1236624978551864,99.78992590709956,138.49110441914718,124.05292271758752
0.1137031538925404,107.04750338210415,138.49110441914718,124.05292271758752
0.1060209455060365,114.53381157932678,138.49110441914718,124.05292271758752
0.1002276607821372,121.59816878858452,138.49110441914718,124.05292271758752
0.0960682839825358,127.65698274155532,138.49110441914718,124.05292271758752
0.0928743521553384,132.65459799868694,138.49110441914718,124.05292271758752
0.0903191528344894,136.05225012500372,138.49110441914718,124.05292271758752
0.0880680191361522,138.0338771136387,138.49110441914718,124.05292271758752
0.0857007764173063,138.40860511562315,138.40860511562315,124.05292271758752
0.0828454781598635,138.0993517555574,138.40860511562315,124.05292271758752
0.0791152182410637,137.1191073628056,138.40860511562315,124.05292271758752
0.0744759377608335,135.75952058708077,138.40860511562315,124.05292271758752
0.0685797190213672,134.30833554122887,138.40860511562315,124.05292271758752
0.0618271276658545,132.58907103660204,138.40860511562315,124.05292271758752
0.0540336063155649,130.8301452271603,138.40860511562315,124.05292271758752
0.0456751012507348,128.9676989546532,138.40860511562315,124.05292271758752
0.0367917918947195,127.089125239372,138.40860511562315,124.05292271758752
0.0284265558497637,125.16792027754524,138.40860511562315,124.05292271758752
0.0208347790386454,123.24377884292711,138.40860511562315,124.05292271758752
0.0148823416203332,121.37150311354992,138.40860511562315,124.05292271758752
0.0110986459004943,119.57595272785312,138.40860511562315,124.05292271758752
0.0105902540916588,117.57552645720445,138.40860511562315,124.05292271758752
0.0140278329045877,115.37262781737006,138.40860511562315,124.05292271758752
0.0220207781183844,113.09043314611483,138.40860511562315,124.05292271758752
0.0353493228753539,110.6650800718725,138.40860511562315,124.05292271758752
0.0543551448167564,108.09748346607144,138.40860511562315,124.05292271758752
0.0796780037936577,105.38600520682064,138.40860511562315,124.05292271758752
0.1110405195900638,102.65574373104184,138.40860511562315,124.05292271758752
0.1486986322061181,99.91596049332928,138.40860511562315,124.05292271758752
0.1917350572452426,97.46973124544094,138.40860511562315,124.05292271758752
0.2398695136478443,95.3885783488804,138.40860511562315,124.05292271758752
0.2919214626066306,93.59733555686309,138.40860511562315,124.05292271758752
0.3471509653295848,92.21456758985724,138.40860511562315,124.05292271758752
0.4036820922832088,91.2071267477033,138.40860511562315,124.05292271758752
0.460546998358889,90.62141066438228,138.40860511562315,124.05292271758752
0.5162008676456195,90.3009579948602,138.40860511562315,124.05292271758752
0.5693720188040019,90.25227429551931,138.40860511562315,124.05292271758752
0.6188039811135664,90.2379028728726,138.40860511562315,124.05292271758752
0.663163936828224,90.1953223409385,138.40860511562315,124.05292271758752
0.7017925417505079,90.22963993343572,138.40860511562315,124.05292271758752
0.733586442152689,90.24965323262464,138.40860511562315,124.05292271758752
0.7585393290203322,90.28991993199844,138.40860511562315,124.05292271758752
0.7759844618850702,90.32861269575112,138.40860511562315,124.05292271758752
0.7861526424185088,90.33261903010018,138.40860511562315,124.05292271758752
0.7888063283449899,90.29158801672266,138.40860511562315,124.05292271758752
0.7847985660409275,90.29556443534688,138.40860511562315,124.05292271758752
0.7741761067037349,90.33761334877748,138.40860511562315,124.05292271758752
0.7577381328256504,90.35511846234154,138.40860511562315,124.05292271758752
0.7358221225805536,90.36248198212309,138.40860511562315,124.05292271758752
0.7095546195412268,90.31248844418216,138.40860511562315,124.05292271758752
0.6794705648517633,90.1905943228336,138.40860511562315,124.05292271758752
0.6462264190089688,89.9779872117318,138.40860511562315,124.05292271758752
0.610526631777393,89.65184351843966,138.40860511562315,124.05292271758752
0.5730826179799438,89.19942637065638,138.40860511562315,124.05292271758752
0.5345782746037293,88.60045738300676,138.40860511562315,124.05292271758752
0.4956065223867972,87.93114369976675,138.40860511562315,124.05292271758752
0.4568505646572923,87.18313842471618,138.40860511562315,124.05292271758752
0.4186366414647277,86.51334136330061,138.40860511562315,124.05292271758752
0.3815858997622234,85.95360317402034,138.40860511562315,124.05292271758752
0.346133583744141,85.42343821014407,138.40860511562315,124.05292271758752
0.3128017688960535,84.97639082335873,138.40860511562315,124.05292271758752
0.2816568805606388,84.45343312504546,138.40860511562315,124.05292271758752
0.2531542741535378,83.84760420764015,138.40860511562315,124.05292271758752
0.2274816631350144,83.45507641090691,138.40860511562315,124.05292271758752
0.2049607368107065,83.47286541858526,138.40860511562315,124.05292271758752
0.1852901917840151,85.08798774580814,138.40860511562315,124.05292271758752
0.168696128682078,88.61781517741456,138.40860511562315,124.05292271758752
0.1550226951853668,94.00589728233662,138.40860511562315,124.05292271758752
0.1443130130239923,101.07563315412824,138.40860511562315,124.05292271758752
0.1359990569817905,108.70643422214296,138.40860511562315,124.05292271758752
0.1300136005050861,116.48274457201104,138.40860511562315,124.05292271758752
0.1259162282525066,123.67314558984717,138.40860511562315,124.05292271758752
0.1234657848923549,129.64263344417412,138.40860511562315,124.05292271758752
0.1219253330731018,134.29561794189348,138.40860511562315,124.05292271758752
0.1209547472770858,137.09957733659903,138.40860511562315,124.05292271758752
0.1202655177012113,138.5839918594508,138.40860511562315,124.05292271758752
0.1194159852029894,138.7420077477379,138.7420077477379,124.05292271758752
0.118096279665628,138.4218662725232,138.7420077477379,124.05292271758752
0.1159259721908093,137.83111705545588,138.7420077477379,124.05292271758752
0.1128545151345882,136.74398368031348,138.7420077477379,124.05292271758752
0.1085524265197791,135.42334480685673,138.7420077477379,124.05292271758752
0.1034345858270615,133.70989956585237,138.7420077477379,124.05292271758752
0.0973240924998429,131.68334311146214,138.7420077477379,124.05292271758752
0.0907361372877321,129.57748804980486,138.7420077477379,124.05292271758752
0.0837241724902034,127.42922487838035,138.7420077477379,124.05292271758752
0.0773106323780758,125.2329846559535,138.7420077477379,124.05292271758752
0.0717677380985647,123.07853950028208,138.7420077477379,124.05292271758752
0.0679804269347876,120.99813938673788,138.7420077477379,124.05292271758752
0.0664845358400978,119.046437419583,138.7420077477379,124.05292271758752
0.0684247369428854,116.94015107884056,138.7420077477379,124.05292271758752
0.0744854139880521,114.69447537861672,138.7420077477379,124.05292271758752
0.0851639495250025,112.37306371115176,138.7420077477379,124.05292271758752
0.1012478650832348,109.91412083722578,138.7420077477379,124.05292271758752
0.1229352849339752,107.33819280236644,138.7420077477379,124.05292271758752
0.1507904305455472,104.63071931414714,138.7420077477379,124.05292271758752
0.1844806131636843,101.99942233551003,138.7420077477379,124.05292271758752
0.2241491669396416,99.46030419797614,138.7420077477379,124.05292271758752
0.2687784095242029,97.16777457801362,138.7420077477379,124.05292271758752
0.317991296344726,95.20449889241964,138.7420077477379,124.05292271758752
0.3705017335518681,93.46416998901924,138.7420077477379,124.05292271758752
0.4254968195595757,92.02707670528736,138.7420077477379,124.05292271758752
0.4811112428650341,90.7510187167591,138.7420077477379,124.05292271758752
0.5363109833919745,89.64110893632123,138.7420077477379,124.05292271758752
0.5896272818737056,88.85587354811804,138.7420077477379,124.05292271758752
0.63975816838991,88.3783185741676,138.7420077477379,124.05292271758752
0.6855907323431528,88.10500686988416,138.7420077477379,124.05292271758752
0.7258167908263309,88.06033838295784,138.7420077477379,124.05292271758752
0.7599825363201003,88.17479788581095,138.7420077477379,124.05292271758752
0.7870914214570719,88.42532597052077,138.7420077477379,124.05292271758752
0.8072836190989117,88.68814596208178,138.7420077477379,124.05292271758752
0.8200198285677509,88.91897281456968,138.7420077477379,124.05292271758752
0.8256269009301261,89.14416833749412,138.7420077477379,124.05292271758752
0.8239596267696367,89.30537953459115,138.7420077477379,124.05292271758752
0.8159725551464696,89.35832318711151,138.7420077477379,124.05292271758752
0.8017593543677635,89.2705240973383,138.7420077477379,124.05292271758752
0.7821084344055345,88.99157594631465,138.7420077477379,124.05292271758752
0.7574156656981528,88.48265254813342,138.7420077477379,124.05292271758752
0.7286748207503878,88.06421980917395,138.7420077477379,124.05292271758752
0.6964396113803991,87.73147520474988,138.7420077477379,124.05292271758752
0.6613156728186019,87.42224445084281,138.7420077477379,124.05292271758752
0.6239783413492638,87.2155689470607,138.7420077477379,124.05292271758752
0.5851395832400369,86.95689285115871,138.7420077477379,124.05292271758752
0.545453342860459,86.65771197567233,138.7420077477379,124.05292271758752
0.5054238101117389,86.23457069484154,138.7420077477379,124.05292271758752
0.4657067877467911,85.64568184760327,138.7420077477379,124.05292271758752
0.4265639849315721,85.04981777275795,138.7420077477379,124.05292271758752
0.3885679911939297,84.41658840370724,138.7420077477379,124.05292271758752
0.3521967822399928,83.79684712919983,138.7420077477379,124.05292271758752
0.3179297615372918,83.22114671606337,138.7420077477379,124.05292271758752
0.2858301135079461,82.64834637681449,138.7420077477379,124.05292271758752
0.2563382853193087,82.10451508200329,138.7420077477379,124.05292271758752
0.2296118400875943,81.87310069678517,138.7420077477379,124.05292271758752
0.2059579882748797,82.18919910164594,138.7420077477379,124.05292271758752
0.1851051473538845,84.01523918836958,138.7420077477379,124.05292271758752
0.1672650693520455,87.66514116257252,138.7420077477379,124.05292271758752
0.1522624249291435,93.01291324102677,138.7420077477379,124.05292271758752
0.1401378252101869,99.86197611641134,138.7420077477379,124.05292271758752
0.13028354023934,106.9642899810736,138.7420077477379,124.05292271758752
0.1226206967872259,114.05834658298042,138.7420077477379,124.05292271758752
0.1167798754931368,120.69061713656984,138.7420077477379,124.05292271758752
0.1125093242482584,126.30586079739108,138.7420077477379,124.05292271758752
0.1091629367589,130.7456651925844,138.7420077477379,124.05292271758752
0.1064232885314431,133.5377015293862,138.7420077477379,124.05292271758752
0.103979017016645,134.95969522234708,134.95969522234708,124.05292271758752
0.1014240699918066,134.929709555838,134.95969522234708,124.05292271758752
0.0984096834314791,134.3491094482541,134.95969522234708,124.05292271758752
0.0945663615036098,133.32018271545184,134.95969522234708,124.05292271758752
0.0898844134004489,131.87849163294743,134.95969522234708,124.05292271758752
0.0840355171110545,130.3353107740439,134.95969522234708,124.05292271758752
0.077446497676736,128.45098820545843,134.95969522234708,124.05292271758752
0.0699543185662432,126.3930751919341,134.95969522234708,124.05292271758752
0.0620590015132671,124.1707279449529,134.95969522234708,124.05292271758752
0.0538237514595599,121.82748880784342,134.95969522234708,124.05292271758752
0.0463034038383098,119.38708185873855,134.95969522234708,124.05292271758752
0.0397754564161508,116.88706053402254,134.95969522234708,124.05292271758752
0.035091697233214,114.3985748516393,134.95969522234708,124.05292271758752
0.0327971053491736,111.95902949334506,134.95969522234708,124.05292271758752
0.0339455376910803,109.6011497343706,134.95969522234708,124.05292271758752
0.0392081808625874,107.37133895277026,134.95969522234708,124.05292271758752
0.0490922631612161,105.20414599474792,134.95969522234708,124.05292271758752
0.0643537182812826,103.13020701606548,134.95969522234708,124.05292271758752
0.0852141029126331,100.94630766327396,134.95969522234708,124.05292271758752
0.1122242604958635,98.6327636922908,134.95969522234708,124.05292271758752
0.1449942785938834,96.31896873927762,134.95969522234708,124.05292271758752
0.1836664626655376,93.95137470495484,134.95969522234708,124.05292271758752
0.2272150618345423,91.85700916245634,134.95969522234708,124.05292271758752
0.2752617960106793,90.07441320134396,134.95969522234708,124.05292271758752
0.3265422880828316,88.51474792498516,134.95969522234708,124.05292271758752
0.3802658805928913,87.28019528026378,134.95969522234708,124.05292271758752
0.4345692759051965,86.36245346832749,134.95969522234708,124.05292271758752
0.4884373876176622,85.79577837358426,134.95969522234708,124.05292271758752
0.5404704288017762,85.45177049453807,134.95969522234708,124.05292271758752
0.5893859160571444,85.33912051053878,134.95969522234708,124.05292271758752
0.6341234228241424,85.2417672894797,134.95969522234708,124.05292271758752
0.6734026913731249,85.10795740234957,134.95969522234708,124.05292271758752
0.7067306136380049,85.03579895835423,134.95969522234708,124.05292271758752
0.7331120079247311,84.94561743864192,134.95969522234708,124.05292271758752
0.7526565393833398,85.04595002399378,134.95969522234708,124.05292271758752
0.7647974069432296,85.33798251137381,134.95969522234708,124.05292271758752
0.7698490944850122,86.01974757776378,134.95969522234708,124.05292271758752
0.7676419433270205,87.16718406177226,134.95969522234708,124.05292271758752
0.7590838512886616,88.27781573070372,134.95969522234708,124.05292271758752
0.7442617626632935,88.92322466150205,134.95969522234708,88.92322466150205
0.7239952385690809,88.26053259358113,134.95969522234708,88.92322466150205
0.6986652996261309,86.05142826856445,134.95969522234708,88.92322466150205
0.6693996974204484,83.63097726025285,134.95969522234708,88.92322466150205
0.6367659010205172,82.12789004978885,134.95969522234708,88.92322466150205
0.6014358311624527,82.57947014601878,134.95969522234708,88.92322466150205
0.5641364227930094,84.74103566126719,134.95969522234708,88.92322466150205
0.5256041566141153,86.76398933634125,134.95969522234708,88.92322466150205
0.4865441702467149,87.51345295724227,134.95969522234708,88.92322466150205
0.447565540468157,86.26803981337325,134.95969522234708,88.92322466150205
0.409373319006792,83.34676617778183,134.95969522234708,88.92322466150205
0.3722780981392927,80.27011666824275,134.95969522234708,88.92322466150205
0.3369173876774194,77.79565953356416,134.95969522234708,88.92322466150205
0.3036632839541401,76.6957592074203,134.95969522234708,88.92322466150205
0.2730373069738137,77.20900557076834,134.95969522234708,88.92322466150205
0.2449967078293103,78.49240377165384,134.95969522234708,88.92322466150205
0.2199683125096385,80.29252921192781,134.95969522234708,88.92322466150205
0.1980012774691192,82.07222954544723,134.95969522234708,88.92322466150205
0.1793560842287423,83.62132563383571,134.95969522234708,88.92322466150205
0.1635875533278416,85.73182482678399,134.95969522234708,88.92322466150205
0.1508318569799645,88.54594030594286,134.95969522234708,88.92322466150205
0.1408094523150029,92.4335594708857,134.95969522234708,88.92322466150205
0.1334562335968239,97.4989156402186,134.95969522234708,88.92322466150205
0.1281215898780608,103.03962109269388,134.95969522234708,88.92322466150205
0.1246297775360563,109.00586406099258,134.95969522234708,88.92322466150205
0.1225109240181179,114.76395259651356,134.95969522234708,88.92322466150205
0.1214308338395842,120.02786016801424,134.95969522234708,88.92322466150205
0.1206794715546265,124.4051746770634,134.95969522234708,88.92322466150205
0.119853155352455,127.51218306572513,134.95969522234708,88.92322466150205
0.1187417826844481,129.56895590020247,134.95969522234708,88.92322466150205
0.1168787891958039,130.4101038769542,134.95969522234708,88.92322466150205
0.1140701693333696,130.74550699829365,130.74550699829365,88.92322466150205
0.1099523041461689,130.5980380634593,130.74550699829365,88.92322466150205
0.1046050231458224,129.90525926487635,130.74550699829365,88.92322466150205
0.0977532331839669,128.86546944940002,130.74550699829365,88.92322466150205
0.0899300093333368,127.29832242208204,130.74550699829365,88.92322466150205
0.081039011575331,125.28187489812257,130.74550699829365,88.92322466150205
0.071682326573829,122.83355098189482,130.74550699829365,88.92322466150205
0.0620039808683273,119.95815467866689,130.74550699829365,88.92322466150205
0.0530774914406548,117.0067829364668,130.74550699829365,88.92322466150205
0.0452600954886224,114.02679674855226,130.74550699829365,88.92322466150205
0.0394567394209918,111.26488246814937,130.74550699829365,88.92322466150205
0.0362723143685366,108.87222976561878,130.74550699829365,88.92322466150205
0.0368464183637897,106.457946666166,130.74550699829365,88.92322466150205
0.0419118247592379,104.13945874512544,130.74550699829365,88.92322466150205
0.0519351446028694,101.59961531152604,130.74550699829365,88.92322466150205
0.0677300822770524,98.76996075993776,130.74550699829365,88.92322466150205
0.0894558715801876,96.13160059217432,130.74550699829365,88.92322466150205
0.1176575332332603,93.61755956317948,130.74550699829365,88.92322466150205
0.1519647734256505,91.553419325643,130.74550699829365,88.92322466150205
0.1924772247763257,90.06640869273653,130.74550699829365,88.92322466150205
0.2381276767658513,88.83550098375818,130.74550699829365,88.92322466150205
0.2884853179305457,87.98853667420632,130.74550699829365,88.92322466150205
0.3422076283653442,87.13010587221808,130.74550699829365,88.92322466150205
0.3984239718670295,86.20814905993325,130.74550699829365,88.92322466150205
0.4552112109030045,84.74739408073503,130.74550699829365,88.92322466150205
0.5114781312459605,82.56410430952667,130.74550699829365,88.92322466150205
0.5657073603315521,80.53169456844674,130.74550699829365,88.92322466150205
0.6165404150761592,79.677077852908,130.74550699829365,88.92322466150205
0.662826681929904,81.28038136117878,130.74550699829365,88.92322466150205
0.7032192567338518,85.19896095901083,130.74550699829365,88.92322466150205
0.7372369874758209,89.0467182525862,130.74550699829365,88.92322466150205
0.7638656962565045,90.83510113817933,130.74550699829365,90.83510113817933
0.7832391213876497,89.55598307508669,130.74550699829365,90.83510113817933
0.7948236419602229,86.25120064873576,130.74550699829365,90.83510113817933
0.7989648648339104,83.43911178341389,130.74550699829365,90.83510113817933
0.7955485572512956,82.14389653465399,130.74550699829365,90.83510113817933
0.7855705671161068,82.42156701417673,130.74550699829365,90.83510113817933
0.769180821690004,83.51516282036059,130.74550699829365,90.83510113817933
0.7472486281787093,84.4068193182691,130.74550699829365,90.83510113817933
0.7202232892083952,84.62288367696448,130.74550699829365,90.83510113817933
0.6892189407715448,84.41562227888035,130.74550699829365,90.83510113817933
0.6548574566555865,83.58422130052116,130.74550699829365,90.83510113817933
0.6178659735742574,82.50080543105952,130.74550699829365,90.83510113817933
0.5790074573414541,81.13817930999153,130.74550699829365,90.83510113817933
0.5390904185570629,80.09109206617916,130.74550699829365,90.83510113817933
0.4988659622823198,79.5004828336114,130.74550699829365,90.83510113817933
0.4588864104570895,79.40852453088964,130.74550699829365,90.83510113817933
0.4198990684655522,79.9446621613672,130.74550699829365,90.83510113817933
0.3821505327273717,80.38620470201404,130.74550699829365,90.83510113817933
0.3462820059313229,80.66456185388367,130.74550699829365,90.83510113817933
0.3126890008612544,80.41486456419422,130.74550699829365,90.83510113817933
0.281881531748275,79.46493607509248,130.74550699829365,90.83510113817933
0.2537816679957607,78.34829635758261,130.74550699829365,90.83510113817933
0.2288127958676137,77.04296597968363,130.74550699829365,90.83510113817933
0.2069545670910528,76.46646613941205,130.74550699829365,90.83510113817933
0.1884479411597753,76.91380143171591,130.74550699829365,90.83510113817933
0.1728369729533951,79.34779191789508,130.74550699829365,90.83510113817933
0.1602259218362791,84.29236260819646,130.74550699829365,90.83510113817933
0.1502798671461781,91.0874916560535,130.74550699829365,90.83510113817933
0.1429068817609046,98.88146722061116,130.74550699829365,90.83510113817933
0.1373911269248696,106.12899731936736,130.74550699829365,90.83510113817933
0.1335172630632307,112.10761728459462,130.74550699829365,90.83510113817933
0.1308800595700593,117.89044452430828,130.74550699829365,90.83510113817933
0.1291098002311044,124.07581537417352,130.74550699829365,90.83510113817933
0.1276047812314413,130.5245504356759,130.74550699829365,90.83510113817933
0.1259685387203817,135.39108403083785,130.74550699829365,90.83510113817933
0.1239636485658656,136.15612351777062,136.15612351777062,90.83510113817933
0.1211536293737465,131.91993832088832,136.15612351777062,90.83510113817933
0.1173529143220762,125.06456535923446,136.15612351777062,90.83510113817933
0.1122085722655877,118.7581738790232,136.15612351777062,90.83510113817933
0.1058572529511343,115.93259243715865,136.15612351777062,90.83510113817933
0.0980395602996661,117.3798491966969,136.15612351777062,90.83510113817933
0.0893418185445655,121.14162776672406,136.15612351777062,90.83510113817933
0.0796985643326108,125.03056523071798,136.15612351777062,90.83510113817933
0.0697435712849369,126.61104441683176,136.15612351777062,126.61104441683176
0.0596574085003998,124.34570640273388,136.15612351777062,126.61104441683176
0.0505933719501552,118.8309955506586,136.15612351777062,126.61104441683176
0.0429480680100805,111.85387142193454,136.15612351777062,126.61104441683176
0.0376223677433075,107.22572938601525,136.15612351777062,126.61104441683176
0.0352672740907526,107.25594414445938,136.15612351777062,126.61104441683176
0.0369246755764432,111.89008049844016,136.15612351777062,126.61104441683176
0.0433442541459465,117.62093996541904,136.15612351777062,126.61104441683176
0.0549742015182081,119.07265221838182,136.15612351777062,126.61104441683176
0.0726106603006836,113.7825495598611,136.15612351777062,126.61104441683176
0.0963550256437222,102.8958309798762,136.15612351777062,126.61104441683176
0.126697872244899,90.59211873430256,136.15612351777062,126.61104441683176
0.1631518112800069,81.4588879737274,136.15612351777062,126.61104441683176
0.2057350977482887,77.80012253978951,136.15612351777062,126.61104441683176
0.2532855420018274,78.40598061818909,136.15612351777062,126.61104441683176
0.3052847789647515,81.2396307054222,136.15612351777062,126.61104441683176
0.3603254701027398,84.00282533534437,136.15612351777062,126.61104441683176
0.4174846945555929,85.47520536591816,136.15612351777062,126.61104441683176
0.4747973130788237,86.06017171512399,136.15612351777062,126.61104441683176
0.5311157441213595,85.81804613179656,136.15612351777062,126.61104441683176
0.5850338708740286,85.34935323556691,136.15612351777062,126.61104441683176
0.6351583173614743,84.80742169591602,136.15612351777062,126.61104441683176
0.6804753158989543,84.80283454213756,136.15612351777062,126.61104441683176
0.7196877443155103,85.65725173927926,136.15612351777062,126.61104441683176
0.7523547281265318,87.08768082614529,136.15612351777062,126.61104441683176
0.7775334462563298,88.45073632623779,136.15612351777062,126.61104441683176
0.7954043414811293,88.17862531630365,136.15612351777062,126.61104441683176
0.8054790585677676,85.67837896396203,136.15612351777062,126.61104441683176
0.8081538036930044,81.67192925463092,136.15612351777062,126.61104441683176
0.8033404700093172,77.40320852639309,136.15612351777062,126.61104441683176
0.792026071617745,74.52671074610785,136.15612351777062,126.61104441683176
0.7743675979679252,73.80756101615138,136.15612351777062,126.61104441683176
0.7512355936451132,74.55836021911472,136.15612351777062,126.61104441683176
0.7230822382723804,76.65519207874564,136.15612351777062,126.61104441683176
0.6910454963888025,79.02941604681216,136.15612351777062,126.61104441683176
0.6557520075733395,81.19207225315276,136.15612351777062,126.61104441683176
0.6178621375767396,82.25114530459055,136.15612351777062,126.61104441683176
0.5781415193262087,81.78591647144758,136.15612351777062,126.61104441683176
0.5373062709956683,80.75891112316563,136.15612351777062,126.61104441683176
0.496080982950472,79.7710109138466,136.15612351777062,126.61104441683176
0.4550533490990185,79.57124006474535,136.15612351777062,126.61104441683176
0.414933378368375,80.32762865298326,136.15612351777062,126.61104441683176
0.3760106401382658,81.18662316811911,136.15612351777062,126.61104441683176
0.3389181994553155,82.1263697027302,136.15612351777062,126.61104441683176
0.3040045002155271,82.80025746202801,136.15612351777062,126.61104441683176
0.2717804190060275,82.92825195651375,136.15612351777062,126.61104441683176
0.2421783174982051,82.17755176609884,136.15612351777062,126.61104441683176
0.2156095449471579,80.25587702613713,136.15612351777062,126.61104441683176
0.1921078175822448,77.9873682927256,136.15612351777062,126.61104441683176
0.1719157238065056,76.50920446659714,136.15612351777062,126.61104441683176
0.1545911102139079,77.5283599411318,136.15612351777062,126.61104441683176
0.1402552089094605,81.9992923248999,136.15612351777062,126.61104441683176
0.1286485341162776,89.17786176856002,136.15612351777062,126.61104441683176
0.1197005502036867,98.17624171730994,136.15612351777062,126.61104441683176
0.1127888998344964,107.10416932671431,136.15612351777062,126.61104441683176
0.107742023881704,115.09571898628238,136.15612351777062,126.61104441683176
0.1041169954123168,121.67496242794078,136.15612351777062,126.61104441683176
0.1015924150641451,126.44512123694264,136.15612351777062,126.61104441683176
0.099478673564286,129.9139608752104,136.15612351777062,126.61104441683176
0.0973892467265264,131.9709960247968,136.15612351777062,126.61104441683176
0.0951291987844162,132.90024307747217,132.90024307747217,126.61104441683176
0.0922496350552053,132.79221875752933,132.90024307747217,126.61104441683176
0.0885725198611464,131.72484624251146,132.90024307747217,126.61104441683176
0.0837510027565931,129.83242208525738,132.90024307747217,126.61104441683176
0.0778888659528763,127.80362548689575,132.90024307747217,126.61104441683176
0.0707283415367974,125.90480281365,132.90024307747217,126.61104441683176
0.0628386705264681,124.75576208859404,132.90024307747217,126.61104441683176
0.0541446123953037,124.50124735779096,132.90024307747217,126.61104441683176
0.0452937818214977,124.13062972195394,132.90024307747217,126.61104441683176
0.0364578753719074,122.98484544276862,132.90024307747217,126.61104441683176
0.0287498061485042,119.9979738153686,132.90024307747217,126.61104441683176
0.0225603994851917,114.93584541705025,132.90024307747217,126.61104441683176
0.0187942059905096,109.25078123735312,132.90024307747217,126.61104441683176
0.0180875651876525,104.19666155542114,132.90024307747217,126.61104441683176
0.0215101384658191,101.04846283054049,132.90024307747217,126.61104441683176
0.029806870492497,99.8696459937799,132.90024307747217,126.61104441683176
0.0433949526823258,99.1635922767744,132.90024307747217,126.61104441683176
0.0630717572183854,98.16532036437496,132.90024307747217,126.61104441683176
0.0888078309896713,96.45272373175423,132.90024307747217,126.61104441683176
0.1210639950136348,94.56820476347887,132.90024307747217,126.61104441683176
0.1593805789105377,93.7479871428321,132.90024307747217,126.61104441683176
0.2037242348071488,94.27497770035318,132.90024307747217,126.61104441683176
0.2528983651172809,95.13008447891164,132.90024307747217,126.61104441683176
0.3063650516595785,94.97584483303577,132.90024307747217,126.61104441683176
0.3626842407214558,92.48481582785374,132.90024307747217,126.61104441683176
0.4209163056789368,87.60856147919056,132.90024307747217,126.61104441683176
0.4791272531113715,82.18386571968563,132.90024307747217,126.61104441683176
0.5361530957508914,77.73759983685125,132.90024307747217,126.61104441683176
0.590588077972954,75.62973162938937,132.90024307747217,126.61104441683176
0.6410374795280248,76.13504493330672,132.90024307747217,126.61104441683176
0.6864825726761539,78.07920688223454,132.90024307747217,126.61104441683176
0.7256468871536556,80.75967567807612,132.90024307747217,126.61104441683176
0.7581561412284088,83.2083398785598,132.90024307747217,126.61104441683176
0.7831037143185361,84.76699990208587,132.90024307747217,126.61104441683176
0.8007288211216369,85.6961545976252,132.90024307747217,126.61104441683176
0.8105954482714044,85.7869238079369,132.90024307747217,85.7869238079369
0.8131335258080322,85.65134094456414,132.90024307747217,85.7869238079369
0.8082970950144596,85.2761262888013,132.90024307747217,85.7869238079369
0.7971333797664077,84.86081681569762,132.90024307747217,85.7869238079369
0.7798246005437777,84.58058826327738,132.90024307747217,85.7869238079369
0.7572256221598609,84.05743304802627,132.90024307747217,85.7869238079369
0.7298202422198257,83.407757020055,132.90024307747217,85.7869238079369
0.6986444183200814,82.46312606080781,132.90024307747217,85.7869238079369
0.6643290818533837,81.17453106640976,132.90024307747217,85.7869238079369
0.6275139260920946,80.02938187444485,132.90024307747217,85.7869238079369
0.5889377213436487,79.00796604949137,132.90024307747217,85.7869238079369
0.5493362245355577,78.33675032069303,132.90024307747217,85.7869238079369
0.5094151207678987,78.16238138519017,132.90024307747217,85.7869238079369
0.4696836758102032,78.1391922605008,132.90024307747217,85.7869238079369
0.4308373211794983,78.3779108408608,132.90024307747217,85.7869238079369
0.3931184669881508,78.57720580527376,132.90024307747217,85.7869238079369
0.357124122929482,78.6789172321256,132.90024307747217,85.7869238079369
0.3232851675406349,78.62097289229517,132.90024307747217,85.7869238079369
0.292086489131884,78.28431219042334,132.90024307747217,85.7869238079369
0.2635134388755886,77.74674499740975,132.90024307747217,85.7869238079369
0.2379894821192192,77.12980899667791,132.90024307747217,85.7869238079369
0.2155636582302675,77.52486575596689,132.90024307747217,85.7869238079369
0.1965007236198353,79.27882831038325,132.90024307747217,85.7869238079369
0.1803952777939146,82.99860873459,132.90024307747217,85.7869238079369
0.1673898381247358,88.75024534089317,132.90024307747217,85.7869238079369
0.1571650842099081,95.55378263162244,132.90024307747217,85.7869238079369
0.1496677988171417,103.0330294254464,132.90024307747217,85.7869238079369
0.1441643285792503,110.27560477382482,132.90024307747217,85.7869238079369
0.1404657171815662,116.70097124403064,132.90024307747217,85.7869238079369
0.1381272382910106,122.40623809725253,132.90024307747217,85.7869238079369
0.1367869370485966,126.79685879348152,132.90024307747217,85.7869238079369
0.1357973066749414,130.0216816830725,132.90024307747217,85.7869238079369
0.1347517210911658,131.75749568332378,132.90024307747217,85.7869238079369
0.1334178090388144,132.51849514691136,132.51849514691136,85.7869238079369
0.1313413118773495,132.1877067325829,132.51849514691136,85.7869238079369
0.1283214468776821,131.2263091426757,132.51849514691136,85.7869238079369
0.1239945288059915,129.74454326960156,132.51849514691136,85.7869238079369
0.1185417810926839,127.71085629291368,132.51849514691136,85.7869238079369
0.1116971728833947,125.3089628715062,132.51849514691136,85.7869238079369
0.104088189622918,122.81659089420296,132.51849514691136,85.7869238079369
0.0956618394351229,120.36331893019744,132.51849514691136,85.7869238079369
0.087104363046857,118.04496624992498,132.51849514691136,85.7869238079369
0.0786200931792993,116.03171755776516,132.51849514691136,85.7869238079369
0.0714106978128848,114.04116887045208,132.51849514691136,85.7869238079369
0.0659066185689384,112.17417436721855,132.51849514691136,85.7869238079369
0.0629944869522108,110.41149080598667,132.51849514691136,85.7869238079369
0.0633578104272397,108.7372056215828,132.51849514691136,85.7869238079369
0.0678990097246453,106.839331240331,132.51849514691136,85.7869238079369
0.0773695084403598,104.67591589904804,132.51849514691136,85.7869238079369
0.0922342492705702,102.2394179286917,132.51849514691136,85.7869238079369
0.1132544340050966,99.41681663148168,132.51849514691136,85.7869238079369
0.1401862190224133,96.52809347536623,132.51849514691136,85.7869238079369
0.1734205658269371,93.53767819839636,132.51849514691136,85.7869238079369
0.2124074985062913,90.70966254391315,132.51849514691136,85.7869238079369
0.2569871035970181,88.13557414954984,132.51849514691136,85.7869238079369
0.3058308033786471,85.74834700446915,132.51849514691136,85.7869238079369
0.3583110992741468,83.66578281102159,132.51849514691136,85.7869238079369
0.412926312449919,82.05401482405567,132.51849514691136,85.7869238079369
0.4687038300131693,80.98271205591101,132.51849514691136,85.7869238079369
0.5237197505367934,80.45291462956764,132.51849514691136,85.7869238079369
0.5767708913175238,80.55652252389142,132.51849514691136,85.7869238079369
0.6266639552656403,80.88039232061118,132.51849514691136,85.7869238079369
0.6720050521636469,81.43790892298377,132.51849514691136,85.7869238079369
0.7120061785271278,82.05512636554839,132.51849514691136,85.7869238079369
0.7455059083613759,82.61001739155115,132.51849514691136,85.7869238079369
0.7722397426602339,83.15831150190353,132.51849514691136,85.7869238079369
0.7914325917091959,83.58793175795896,132.51849514691136,85.7869238079369
0.8034196191166558,83.91199930531772,132.51849514691136,85.7869238079369
0.8078492495149533,84.07797552938514,132.51849514691136,84.07797552938514
0.8052348182485992,83.96567214012438,132.51849514691136,84.07797552938514
0.79557714697922,83.53128149437921,132.51849514691136,84.07797552938514
0.77990990227249,83.03967079159715,132.51849514691136,84.07797552938514
0.758467888507869,82.45696036868759,132.51849514691136,84.07797552938514
0.7320852942387578,81.82616706347744,132.51849514691136,84.07797552938514
0.7012721250486467,81.2047384281336,132.51849514691136,84.07797552938514
0.6670954643998743,80.66891715213121,132.51849514691136,84.07797552938514
0.6302010090966443,80.26983312532114,132.51849514691136,84.07797552938514
0.5911813221105765,79.86212650577042,132.51849514691136,84.07797552938514
0.5507886874615227,79.48404286924502,132.51849514691136,84.07797552938514
0.5096882843483089,79.06392310446012,132.51849514691136,84.07797552938514
0.4685736885809488,78.57774826623033,132.51849514691136,84.07797552938514
0.4279992223975257,78.17131881790571,132.51849514691136,84.07797552938514
0.3886388566791759,77.82758546931424,132.51849514691136,84.07797552938514
0.350758114048138,77.60165533179666,132.51849514691136,84.07797552938514
0.3149562354134316,77.52930337336953,132.51849514691136,84.07797552938514
0.2815547153718805,77.30735989859562,132.51849514691136,84.07797552938514
0.2510339570274629,76.9397090944434,132.51849514691136,84.07797552938514
0.2232862724583963,76.45549174718703,132.51849514691136,84.07797552938514
0.1986923869863076,75.93146703055073,132.51849514691136,84.07797552938514
0.1772337545045342,76.41198650810824,132.51849514691136,84.07797552938514
0.1591174730137159,78.19392375071169,132.51849514691136,84.07797552938514
0.1438503696776342,81.88656992277399,132.51849514691136,84.07797552938514
0.1315121031548556,87.55220396472716,132.51849514691136,84.07797552938514
0.1218043974975069,94.1858454453088,132.51849514691136,84.07797552938514
0.1146130581133562,101.420377988953,132.51849514691136,84.07797552938514
0.1092933352319119,108.3828047164762,132.51849514691136,84.07797552938514
0.1056336625359302,114.49461939966746,132.51849514691136,84.07797552938514
0.1031983401354495,119.83436889756273,132.51849514691136,84.07797552938514
0.1016356004725754,123.81822842346224,132.51849514691136,84.07797552938514
0.1003055949646444,126.44738518125143,132.51849514691136,84.07797552938514
0.0988097899362692,127.4298807406104,132.51849514691136,84.07797552938514
0.0969454812356729,127.47237149768064,127.47237149768064,84.07797552938514
0.0942686978103288,126.58733089897274,127.47237149768064,84.07797552938514
0.0907141273132455,125.41948266707357,127.47237149768064,84.07797552938514
0.0859465968886277,124.22725656944613,127.47237149768064,84.07797552938514
0.0800976896526791,122.59087450382988,127.47237149768064,84.07797552938514
0.072951031316662,120.79608968316352,127.47237149768064,84.07797552938514
0.0651311410361197,118.69346691777037,127.47237149768064,84.07797552938514
0.0566004181638727,116.32464030561562,127.47237149768064,84.07797552938514
0.0480365948787188,113.91870863070798,127.47237149768064,84.07797552938514
0.0396533576940766,111.49419159195112,127.47237149768064,84.07797552938514
0.0325749005267814,108.89950228354492,127.47237149768064,84.07797552938514
0.0272273446008809,106.1958313557509,127.47237149768064,84.07797552938514
0.0244737370347971,103.4215961218672,127.47237149768064,84.07797552938514
0.024971374212043,100.57394606979643,127.47237149768064,84.07797552938514
0.029660474670996,98.23770062600298,127.47237149768064,84.07797552938514
0.0392745838364641,96.48503025919383,127.47237149768064,84.07797552938514
0.05423537784848,95.30521689198554,127.47237149768064,84.07797552938514
0.0752988139673668,94.34819294774408,127.47237149768064,84.07797552938514
0.1021815588032264,92.67877130983402,127.47237149768064,84.07797552938514
0.1352719569029009,90.00134760040585,127.47237149768064,84.07797552938514
0.1740753529242356,86.75419633248747,127.47237149768064,84.07797552938514
0.2184429854468132,83.4190920885346,127.47237149768064,84.07797552938514
0.2670773766658552,80.86948946941017,127.47237149768064,84.07797552938514
0.3193873361118335,79.56711552209651,127.47237149768064,84.07797552938514
0.3738935347859207,78.92758196253622,127.47237149768064,84.07797552938514
0.4296484865637522,79.18770434315218,127.47237149768064,84.07797552938514
0.4847692760014535,80.0620969096685,127.47237149768064,84.07797552938514
0.5380792143357179,81.51362918749145,127.47237149768064,84.07797552938514
0.5883145091375321,82.93636160118376,127.47237149768064,84.07797552938514
0.6341017864188725,83.89209136443885,127.47237149768064,83.89209136443885
0.6745541958215622,83.54011650771739,127.47237149768064,83.89209136443885
0.7084782051654526,81.54294292372197,127.47237149768064,83.89209136443885
0.7355979153652958,78.96633884655729,127.47237149768064,83.89209136443885
0.7550981879371153,76.71839028134411,127.47237149768064,83.89209136443885
0.7673030126700451,76.05333084154849,127.47237149768064,83.89209136443885
0.7718541818013317,77.34937492432176,127.47237149768064,83.89209136443885
0.769253619780659,79.3898567763162,127.47237149768064,83.89209136443885
0.7595212297219981,81.25205915619465,127.47237149768064,83.89209136443885
0.7437621852489957,81.93455298567186,127.47237149768064,83.89209136443885
0.7222260253169285,81.31513760347916,127.47237149768064,83.89209136443885
0.6958172531854917,80.47189822523512,127.47237149768064,83.89209136443885
0.6650824679639634,79.71608153112606,127.47237149768064,83.89209136443885
0.6311066165542697,79.37651136699606,127.47237149768064,83.89209136443885
0.5945785225874595,79.42652554140332,127.47237149768064,83.89209136443885
0.5561741994200221,79.44408160278056,127.47237149768064,83.89209136443885
0.5166858156017493,79.4771616524101,127.47237149768064,83.89209136443885
0.4768546747121143,79.57722659331839,127.47237149768064,83.89209136443885
0.4374303469382194,79.65723041016813,127.47237149768064,83.89209136443885
0.3988799829899109,79.28919980347611,127.47237149768064,83.89209136443885
0.3619237219969518,78.26947074271644,127.47237149768064,83.89209136443885
0.3267084620765104,76.27204169342367,127.47237149768064,83.89209136443885
0.2938256688250403,73.65489880873858,127.47237149768064,83.89209136443885
0.2635678264466671,71.79413355058296,127.47237149768064,83.89209136443885
0.2363767390865611,71.08183735620767,127.47237149768064,83.89209136443885
0.2120793255569346,71.83640668042202,127.47237149768064,83.89209136443885
0.191019063983811,73.82199438750187,127.47237149768064,83.89209136443885
0.1730970751880593,76.28334784314364,127.47237149768064,83.89209136443885
0.1584708113006657,79.11563778606907,127.47237149768064,83.89209136443885
0.1466277790478279,82.76734268999311,127.47237149768064,83.89209136443885
0.1375930680150348,87.6524899067042,127.47237149768064,83.89209136443885
0.1309904920106473,94.61095304978905,127.47237149768064,83.89209136443885
0.1266590068370423,103.91696232812784,127.47237149768064,83.89209136443885
0.1238527033376674,113.96296743894216,127.47237149768064,83.89209136443885
0.1222985004851927,122.66616318459516,127.47237149768064,83.89209136443885
0.1216129875126555,127.55232870698714,127.47237149768064,83.89209136443885
0.1213841410803538,127.87024366459336,127.87024366459336,83.89209136443885
0.1211296089725973,125.75370855463984,127.87024366459336,83.89209136443885
0.1204445527170711,123.50694998291154,127.87024366459336,83.89209136443885
0.1190225001364349,122.8313374900428,127.87024366459336,83.89209136443885
0.1164466463877415,123.6205790197375,127.87024366459336,83.89209136443885
0.1128110524293839,124.11193809997977,127.87024366459336,83.89209136443885
0.1077830223381565,123.65844660469766,127.87024366459336,83.89209136443885
0.101536952509352,122.11394039334677,127.87024366459336,83.89209136443885
0.0939082795484516,119.81238154906748,127.87024366459336,83.89209136443885
0.0856273081190769,117.6603033648446,127.87024366459336,83.89209136443885
0.0767090088389911,115.87069219715114,127.87024366459336,83.89209136443885
0.0678832055095249,114.7513348244231,127.87024366459336,83.89209136443885
0.0594310106856219,114.510378642501,127.87024366459336,83.89209136443885
0.0525661810211862,114.16566116316964,127.87024366459336,83.89209136443885
0.0477795541087103,113.04716461113286,127.87024366459336,83.89209136443885
0.0459358387773457,110.19804477554814,127.87024366459336,83.89209136443885
0.0477576573709212,105.41925143609105,127.87024366459336,83.89209136443885
0.0540905805284725,100.01153394272664,127.87024366459336,83.89209136443885
0.0656991124355845,94.84005291059776,127.87024366459336,83.89209136443885
0.0829748425380949,90.8090465292166,127.87024366459336,83.89209136443885
0.1066439648177911,88.16890052471703,127.87024366459336,83.89209136443885
0.1363901172018169,86.1259547067323,127.87024366459336,83.89209136443885
0.1725351645864901,84.81233167412603,127.87024366459336,83.89209136443885
0.2144519722562699,84.31795654505797,127.87024366459336,83.89209136443885
0.261902569769582,84.53689898176383,127.87024366459336,83.89209136443885
0.3134828279632022,85.05134546254209,127.87024366459336,83.89209136443885
0.3684943462156633,85.28243093885762,127.87024366459336,83.89209136443885
0.4253701764650273,84.61809098938816,127.87024366459336,83.89209136443885
0.4830842295465958,82.91135121300559,127.87024366459336,83.89209136443885
0.5396810187106021,81.22776502316015,127.87024366459336,83.89209136443885
0.5939020259617515,80.02060158499953,127.87024366459336,83.89209136443885
0.6445711771734381,79.74005304738,127.87024366459336,83.89209136443885
0.6902534683383797,80.30024021535169,127.87024366459336,83.89209136443885
0.7301910176338764,80.73762496502988,127.87024366459336,83.89209136443885
0.7632315051737484,80.99765027112869,127.87024366459336,83.89209136443885
0.789140576814536,80.900211193458,127.87024366459336,83.89209136443885
0.8071810748800184,80.38519091921769,127.87024366459336,83.89209136443885
0.8177341538267728,79.96409130663363,127.87024366459336,83.89209136443885
0.8205007620952446,79.60220393294752,127.87024366459336,83.89209136443885
0.8160516025822085,79.22882464824963,127.87024366459336,83.89209136443885
0.8044499548821914,78.9577117318185,127.87024366459336,83.89209136443885
0.7867985764938128,78.52105491169883,127.87024366459336,83.89209136443885
0.7633935264530248,77.93472242512155,127.87024366459336,83.89209136443885
0.7351419727348766,77.81334681400102,127.87024366459336,83.89209136443885
0.7026186376982068,78.4613683828325,127.87024366459336,83.89209136443885
0.6669477840750279,80.22053361458742,127.87024366459336,83.89209136443885
0.6288412099580823,82.42789924998615,127.87024366459336,83.89209136443885
0.5889229996515697,83.17635696964501,127.87024366459336,83.17635696964501
0.5480054106829919,81.7650098777814,127.87024366459336,83.17635696964501
0.5067562253625967,78.32280207902193,127.87024366459336,83.17635696964501
0.4659153821325199,74.12351532322083,127.87024366459336,83.17635696964501
0.4260101530393674,70.9216994627905,127.87024366459336,83.17635696964501
0.3877416563586386,69.62839051201631,127.87024366459336,83.17635696964501
0.3513183830469765,69.64968050731528,127.87024366459336,83.17635696964501
0.317343725451686,70.48392916988816,127.87024366459336,83.17635696964501
0.2860554416378029,71.30567244414229,127.87024366459336,83.17635696964501
0.2579129212588054,71.65509782735403,127.87024366459336,83.17635696964501
0.2327065446471898,72.17411610680783,127.87024366459336,83.17635696964501
0.2107712436291653,73.24152239500762,127.87024366459336,83.17635696964501
0.1919826703498763,76.04264461519509,127.87024366459336,83.17635696964501
0.1764813324639398,81.07458536371414,127.87024366459336,83.17635696964501
0.1636843252291092,88.09899719330802,127.87024366459336,83.17635696964501
0.1535922835896387,96.34442399946832,127.87024366459336,83.17635696964501
0.1458462691826659,104.0541982005353,127.87024366459336,83.17635696964501
0.1402525194246923,110.56347072824283,127.87024366459336,83.17635696964501
0.1361411424619457,115.74051516140676,127.87024366459336,83.17635696964501
0.1332319386275798,119.79621171765724,127.87024366459336,83.17635696964501
0.131127183785201,123.10134661063027,127.87024366459336,83.17635696964501
0.1294291570059581,125.74679396167524,127.87024366459336,83.17635696964501
0.1276211523176756,127.37530868317016,127.87024366459336,83.17635696964501
0.1252986065731955,128.1157408572158,127.87024366459336,83.17635696964501
0.1222264407169397,128.300654493478,128.300654493478,83.17635696964501
0.1179863691283885,127.9416572115704,128.300654493478,83.17635696964501
0.1127524158577542,126.92978778145113,128.300654493478,83.17635696964501
0.1062193264099124,125.1598790751806,128.300654493478,83.17635696964501
0.0985583829104164,122.67044598218406,128.300654493478,83.17635696964501
0.0896427325176153,119.87676127735745,128.300654493478,83.17635696964501
0.0802289599613589,117.60697503870075,128.300654493478,83.17635696964501
0.0703566364999878,116.18914853817375,128.300654493478,83.17635696964501
0.0607898075083637,115.09685889507516,128.300654493478,83.17635696964501
0.0518362510104709,113.90611991795636,128.300654493478,83.17635696964501
0.0446681651395331,111.9129776646392,128.300654493478,83.17635696964501
0.0397980568444689,108.97355164620618,128.300654493478,83.17635696964501
0.0380826005645287,105.96226005154575,128.300654493478,83.17635696964501
0.0402455100649238,103.053825498966,128.300654493478,83.17635696964501
0.0471228383246876,100.6252592179693,128.300654493478,83.17635696964501
0.0594774735906322,98.70668467515456,128.300654493478,83.17635696964501
0.0776032401362409,96.69403903843042,128.300654493478,83.17635696964501
0.1021917375599264,94.65620330050518,128.300654493478,83.17635696964501
0.1328588674250485,92.76518338607026,128.300654493478,83.17635696964501
0.1698624992874374,90.99249755747428,128.300654493478,83.17635696964501
0.2125302548235871,89.37922309968673,128.300654493478,83.17635696964501
0.2605732139919701,87.91896476649111,128.300654493478,83.17635696964501
0.3125096962645247,86.27303834121129,128.300654493478,83.17635696964501
0.3676216896292708,84.4131568214046,128.300654493478,83.17635696964501
0.4243599923142738,82.73874802495115,128.300654493478,83.17635696964501
0.481706188430746,81.3043940640005,128.300654493478,83.17635696964501
0.5378131314095652,80.5183360802459,128.300654493478,83.17635696964501
0.5914419110801744,80.35716471896436,128.300654493478,83.17635696964501
0.641454366274384,79.83839062010264,128.300654493478,83.17635696964501
0.6864613463109214,78.82198039935916,128.300654493478,83.17635696964501
0.7257191535327013,77.27616329532633,128.300654493478,83.17635696964501
0.7581110569588719,76.02576466691124,128.300654493478,83.17635696964501
0.7834774619686573,76.42278231145372,128.300654493478,83.17635696964501
0.801104466015588,78.95838844075838,128.300654493478,83.17635696964501
0.8114093670067878,82.0430270264633,128.300654493478,83.17635696964501
0.8141160554709058,84.12958024419741,128.300654493478,83.17635696964501
0.8097935661124476,84.1234990754869,128.300654493478,83.17635696964501
0.7985074101718239,82.64011106886097,128.300654493478,83.17635696964501
0.7813715187358184,81.80124886650158,128.300654493478,83.17635696964501
0.7586849607532458,82.33247265214055,128.300654493478,83.17635696964501
0.7312840475980528,83.87047336809528,128.300654493478,83.17635696964501
0.6997411643845352,85.22230557781323,128.300654493478,83.17635696964501
0.6650539146808161,85.40764877502035,128.300654493478,85.40764877502035
0.627899972853193,84.44142552454117,128.300654493478,85.40764877502035
0.5888797109205008,83.63887246658038,128.300654493478,85.40764877502035
0.5487478185533092,83.31637121625448,128.300654493478,85.40764877502035
0.50817361706844,83.26783093854189,128.300654493478,85.40764877502035
0.4678561438994749,82.66392402496407,128.300654493478,85.40764877502035
0.4282467450546304,80.8806716354924,128.300654493478,85.40764877502035
0.3900131803622096,78.25682523884352,128.300654493478,85.40764877502035
0.3533500050595417,76.26496176089229,128.300654493478,85.40764877502035
0.3188169550669331,75.28748074111937,128.300654493478,85.40764877502035
0.2867108308967468,75.30137816999469,128.300654493478,85.40764877502035
0.2574667540872404,75.93708609070868,128.300654493478,85.40764877502035
0.2309163448072588,76.96563919292159,128.300654493478,85.40764877502035
0.2073995059618736,78.49034123724397,128.300654493478,85.40764877502035
0.1869045054592628,81.26460651024384,128.300654493478,85.40764877502035
0.1695967389800502,85.34362376582595,128.300654493478,85.40764877502035
0.1550363435946562,90.48613127949224,128.300654493478,85.40764877502035
0.1432847161216008,96.31737142647344,128.300654493478,85.40764877502035
0.1339804077625559,102.2304852628049,128.300654493478,85.40764877502035
0.1270053537897271,107.88407923568003,128.300654493478,85.40764877502035
0.1216249389403794,113.82122615263722,128.300654493478,85.40764877502035
0.117597564738246,119.97849148073638,128.300654493478,85.40764877502035
0.1145446937264496,126.36769919355818,128.300654493478,85.40764877502035
0.1120779073754249,132.24164184412734,128.300654493478,85.40764877502035
0.1097022598183445,135.6938569583381,128.300654493478,85.40764877502035
0.1070278952125458,135.91675762591382,135.91675762591382,85.40764877502035
0.1037450083908944,133.0468336294734,135.91675762591382,85.40764877502035
0.0994425468679622,128.67320639104304,135.91675762591382,85.40764877502035
0.0942111346518763,125.17207423163354,135.91675762591382,85.40764877502035
0.087720756322276,123.69551956796828,135.91675762591382,85.40764877502035
0.0801622954762602,123.71504259320342,135.91675762591382,85.40764877502035
0.0713737142859098,124.36874805811036,135.91675762591382,85.40764877502035
0.062106330952373,124.2220895534848,135.91675762591382,85.40764877502035
0.0523834713072297,122.54046708011244,135.91675762591382,85.40764877502035
0.0429568850175727,119.46730681869424,135.91675762591382,85.40764877502035
0.0341207221752819,115.2917113582976,135.91675762591382,85.40764877502035
0.0270985573096304,111.41681435159546,135.91675762591382,85.40764877502035
0.0223962140270928,108.26350486284204,135.91675762591382,85.40764877502035
0.0208622674597482,106.06453998002031,135.91675762591382,85.40764877502035
0.0232295822575039,104.59208344878894,135.91675762591382,85.40764877502035
0.0302842947624067,102.97800042336016,135.91675762591382,85.40764877502035
0.0427867930819855,101.08769406674708,135.91675762591382,85.40764877502035
0.0610464021307193,98.99655181123578,135.91675762591382,85.40764877502035
0.0857285689789833,96.68672191011753,135.91675762591382,85.40764877502035
0.1164331115541249,94.66462735276627,135.91675762591382,85.40764877502035
0.1533932323524053,92.98718602658734,135.91675762591382,85.40764877502035
0.1958931849513613,91.513425666839,135.91675762591382,85.40764877502035
0.2436141762459996,90.2418243092866,135.91675762591382,85.40764877502035
0.2950879836087131,88.77490824141347,135.91675762591382,85.40764877502035
0.3495753006636158,87.03393919445372,135.91675762591382,85.40764877502035
0.4054959738263338,85.37723287600537,135.91675762591382,85.40764877502035
0.4618388580943552,83.9915995497928,135.91675762591382,85.40764877502035
0.5167494597347926,83.2951999585513,135.91675762591382,85.40764877502035
0.5689825903352898,83.27637575920227,135.91675762591382,85.40764877502035
0.6175755673656329,83.14547386294679,135.91675762591382,85.40764877502035
0.6611519935853727,82.94055079736583,135.91675762591382,85.40764877502035
0.6991552983736208,82.69799591498531,135.91675762591382,85.40764877502035
0.7305654586043991,82.52369154390009,135.91675762591382,85.40764877502035
0.7552914950265215,82.67871216999615,135.91675762591382,85.40764877502035
0.7727146077725835,83.26228514620391,135.91675762591382,85.40764877502035
0.7833008919303724,83.743057205647,135.91675762591382,85.40764877502035
0.7867990427857036,84.20109145687644,135.91675762591382,85.40764877502035
0.7837923817162278,84.57824407694062,135.91675762591382,85.40764877502035
0.7743019476595973,84.7695876408748,135.91675762591382,85.40764877502035
0.7592976273620714,84.8957923638084,135.91675762591382,85.40764877502035
0.7390434508504112,84.89679531872218,135.91675762591382,84.89679531872218
0.7141804741422518,84.68300453764184,135.91675762591382,84.89679531872218
0.6851985164935446,84.23999205259429,135.91675762591382,84.89679531872218
0.6529777606583209,83.82579158949673,135.91675762591382,84.89679531872218
0.6180802777799244,83.43081965612247,135.91675762591382,84.89679531872218
0.580979047260447,82.95975870081415,135.91675762591382,84.89679531872218
0.5423129515074155,82.46910728862883,135.91675762591382,84.89679531872218
0.502715800686015,81.96559306267636,135.91675762591382,84.89679531872218
0.4627758469313212,81.45493164753324,135.91675762591382,84.89679531872218
0.4230930433182858,80.98384346721562,135.91675762591382,84.89679531872218
0.3842719651282361,80.5648849608956,135.91675762591382,84.89679531872218
0.3466681001462859,80.09422593186966,135.91675762591382,84.89679531872218
0.3108583362242174,79.5817193331651,135.91675762591382,84.89679531872218
0.2772586316082841,79.01301126827238,135.91675762591382,84.89679531872218
0.2463684282059454,78.3636725146769,135.91675762591382,84.89679531872218
0.2181445086679838,78.45802057353546,135.91675762591382,84.89679531872218
0.1930105838767823,79.61832001564098,135.91675762591382,84.89679531872218
0.170963218219591,82.53677979041117,135.91675762591382,84.89679531872218
0.1522545560868632,87.5609992173859,135.91675762591382,84.89679531872218
0.1363609604627636,93.98624427902266,135.91675762591382,84.89679531872218
0.12339086511529,101.49202823241812,135.91675762591382,84.89679531872218
0.1129863692323155,109.11739058394984,135.91675762591382,84.89679531872218
0.1050370721029412,116.39877987156122,135.91675762591382,84.89679531872218
0.098832477335909,122.9902444006736,135.91675762591382,84.89679531872218
0.0941409998375085,128.3072780751574,135.91675762591382,84.89679531872218
0.090505576506572,132.2610321980157,135.91675762591382,84.89679531872218
0.0875425405821079,134.3905540257164,135.91675762591382,84.89679531872218
0.0846806969886792,135.3315327981597,135.3315327981597,84.89679531872218
0.0815034672147885,135.10378279157837,135.3315327981597,84.89679531872218
0.0777447329434136,134.31919134928074,135.3315327981597,84.89679531872218
0.0729615103488847,133.2092983079582,135.3315327981597,84.89679531872218
0.0673303709751185,131.8256113809152,135.3315327981597,84.89679531872218
0.0605229698147799,130.41617738453797,135.3315327981597,84.89679531872218
0.0527478854352714,128.69722774415044,135.3315327981597,84.89679531872218
0.0438685137445042,126.80613391329766,135.3315327981597,84.89679531872218
0.0347050203704085,124.75335127635492,135.3315327981597,84.89679531872218
0.0253073678551997,122.55004977317398,135.3315327981597,84.89679531872218
0.0165113415993996,120.38327148999171,135.3315327981597,84.89679531872218
0.0086554312792805,118.28789382884248,135.3315327981597,84.89679531872218
0.002966237250686,116.13939000294312,135.3315327981597,84.89679531872218
0.0,113.99785717849105,135.3315327981597,84.89679531872218
0.0006238141730468,111.82782264801328,135.3315327981597,84.89679531872218
0.0056040941519059,109.62655583014492,135.3315327981597,84.89679531872218
0.0157116854343742,107.30973511326133,135.3315327981597,84.89679531872218
0.0317320550024879,104.8599298372987,135.3315327981597,84.89679531872218
0.0538506042460089,102.3338213576162,135.3315327981597,84.89679531872218
0.0826826909530285,99.70350501827596,135.3315327981597,84.89679531872218
0.1177234170800964,97.25523761113092,135.3315327981597,84.89679531872218
0.1590929687253509,95.01767968086853,135.3315327981597,84.89679531872218
0.2059702513682864,93.00235379776014,135.3315327981597,84.89679531872218
0.2579145187545538,91.30587086065528,135.3315327981597,84.89679531872218
0.3132973796593828,89.90976625685892,135.3315327981597,84.89679531872218
0.3712779553345174,88.8717929594946,135.3315327981597,84.89679531872218
0.4302349188288029,88.05045746141327,135.3315327981597,84.89679531872218
0.489044382172015,87.46339449026583,135.3315327981597,84.89679531872218
0.5459341961160206,87.1304572749064,135.3315327981597,84.89679531872218
0.599587115894053,87.02668140462242,135.3315327981597,84.89679531872218
0.6490502968862936,87.1538192542414,135.3315327981597,84.89679531872218
0.6929311118219349,87.50419787579426,135.3315327981597,84.89679531872218
0.7306634937314197,87.76421597860602,135.3315327981597,84.89679531872218
0.7612315306351334,87.89656156902197,135.3315327981597,84.89679531872218
0.7846026285939411,87.96902052196822,135.3315327981597,84.89679531872218
0.800177346314632,87.87889792489052,135.3315327981597,84.89679531872218
0.8084720240400353,87.87329692935474,135.3315327981597,84.89679531872218
0.8092919651796304,87.93639547696594,135.3315327981597,84.89679531872218
0.8032711796413813,88.09741549090539,135.3315327981597,84.89679531872218
0.7905163878735402,88.41498762177704,135.3315327981597,84.89679531872218
0.772145021835802,88.62163606005487,135.3315327981597,84.89679531872218
0.7485019996400034,88.73074392995544,135.3315327981597,84.89679531872218
0.7203734997291935,88.58794349328082,135.3315327981597,84.89679531872218
0.6883557746968597,88.11258536270735,135.3315327981597,84.89679531872218
0.6534011252712223,87.55799583858662,135.3315327981597,84.89679531872218
0.6161842101158785,86.86153229827681,135.3315327981597,84.89679531872218
0.5772821778231301,86.27813683485032,135.3315327981597,84.89679531872218
0.5374339874806725,85.86573165435408,135.3315327981597,84.89679531872218
0.4973095731042915,85.35290298813469,135.3315327981597,84.89679531872218
0.4575924051619312,84.8134384720728,135.3315327981597,84.89679531872218
0.4187481294965736,84.20467995947863,135.3315327981597,84.89679531872218
0.3814365478838958,83.49078906895608,135.3315327981597,84.89679531872218
0.3458622714372846,82.81374027618902,135.3315327981597,84.89679531872218
0.3125848307919612,82.15912599898385,135.3315327981597,84.89679531872218
0.2818922124396514,81.54910676600359,135.3315327981597,84.89679531872218
0.2542209705671254,81.01595517218149,135.3315327981597,84.89679531872218
0.2293733102880224,81.48389167941764,135.3315327981597,84.89679531872218
0.2076844400076609,83.28120864716274,135.3315327981597,84.89679531872218
0.189098461307649,86.93940823912274,135.3315327981597,84.89679531872218
0.173765354388453,92.72007882176808,135.3315327981597,84.89679531872218
0.1611933235291845,99.8058111040036,135.3315327981597,84.89679531872218
0.1514170130717027,107.74191446677364,135.3315327981597,84.89679531872218
0.1440236410280703,115.5721777067414,135.3315327981597,84.89679531872218
0.1388593125607279,122.72140886246778,135.3315327981597,84.89679531872218
0.1351491805724451,129.02569131311532,135.3315327981597,84.89679531872218
0.1326114287091703,133.86244047499315,135.3315327981597,84.89679531872218
0.1308509152089806,137.34918751090763,135.3315327981597,84.89679531872218
0.1294416321642652,139.07047346870394,135.3315327981597,84.89679531872218
0.1279075630754637,139.76997528804964,139.76997528804964,84.89679531872218
0.125832850622781,139.45406514947848,139.76997528804964,84.89679531872218
0.1229596098350258,138.57902567136532,139.76997528804964,84.89679531872218
0.1188708879790764,137.38512228775883,139.76997528804964,84.89679531872218
0.1137600281258177,135.839592323798,139.76997528804964,84.89679531872218
0.1073176025434483,134.2044825917432,139.76997528804964,84.89679531872218
0.0998588628417544,132.39754069336828,139.76997528804964,84.89679531872218
0.0912748798842561,130.56160879472912,139.76997528804964,84.89679531872218
0.082454104384632,128.60583896794392,139.76997528804964,84.89679531872218
0.0735001286103388,126.59131071400095,139.76997528804964,84.89679531872218
0.0652794584957046,124.60155941656436,139.76997528804964,84.89679531872218
0.0581847757223011,122.66108567077728,139.76997528804964,84.89679531872218
0.0534998975874061,120.67337442353514,139.76997528804964,84.89679531872218
0.0518289528050352,118.66872574011082,139.76997528804964,84.89679531872218
0.0539991547729158,116.63591848432432,139.76997528804964,84.89679531872218
0.0608186807331802,114.56511060811376,139.76997528804964,84.89679531872218
0.0729388844221651,112.19529652384531,139.76997528804964,84.89679531872218
0.0911477588769656,109.49224092934324,139.76997528804964,84.89679531872218
0.1155673421626116,106.65241642495792,139.76997528804964,84.89679531872218
0.1467363678394087,103.60279445167173,139.76997528804964,84.89679531872218
0.1840638866047075,100.74920738568863,139.76997528804964,84.89679531872218
0.2275722387661573,98.14535955597408,139.76997528804964,84.89679531872218
0.276322540919899,95.7411605687457,139.76997528804964,84.89679531872218
0.3297705770367155,93.67265610541985,139.76997528804964,84.89679531872218
0.3862242420566289,92.03492971415898,139.76997528804964,84.89679531872218
0.4447523980686504,90.90376807976968,139.76997528804964,84.89679531872218
0.5036514474427018,90.10780991543932,139.76997528804964,84.89679531872218
0.5617149098371229,89.70559183117642,139.76997528804964,84.89679531872218
0.6171549140441476,89.23692244381922,139.76997528804964,84.89679531872218
0.6685782436337635,88.64319793795818,139.76997528804964,84.89679531872218
0.7151141096587226,88.1559590462491,139.76997528804964,84.89679531872218
0.7553964752762032,87.65402171213299,139.76997528804964,84.89679531872218
0.7890303073386887,87.70405862238624,139.76997528804964,84.89679531872218
0.8151069374322696,88.35758888351144,139.76997528804964,84.89679531872218
0.8336585525536396,89.59855158406322,139.76997528804964,84.89679531872218
0.8442270283330707,91.3183514755694,139.76997528804964,84.89679531872218
0.847445708099975,92.66809663777444,139.76997528804964,84.89679531872218
0.8432270474606468,93.49633492961784,139.76997528804964,84.89679531872218
0.8323219915128359,93.67867281255552,139.76997528804964,93.67867281255552
0.814916313693493,93.17482064829454,139.76997528804964,93.67867281255552
0.7921394834475904,92.64506125098303,139.76997528804964,93.67867281255552
0.7644205013130541,92.09249151433784,139.76997528804964,93.67867281255552
0.7325151520166463,91.60469661432435,139.76997528804964,93.67867281255552
0.6970715304556756,91.37596954360964,139.76997528804964,93.67867281255552
0.6589996339882839,90.9701639397225,139.76997528804964,93.67867281255552
0.6189946695111727,90.4779290306774,139.76997528804964,93.67867281255552
0.5775564088416657,89.83631543437983,139.76997528804964,93.67867281255552
0.5354180745917342,88.9770396764975,139.76997528804964,93.67867281255552
0.4930598403083599,88.38277143540591,139.76997528804964,93.67867281255552
0.451121595248879,88.05074605188325,139.76997528804964,93.67867281255552
0.4101019318794622,88.02750484224735,139.76997528804964,93.67867281255552
0.3705856510517797,88.33873391068259,139.76997528804964,93.67867281255552
0.3327871760000097,88.32819325071422,139.76997528804964,93.67867281255552
0.2972315163802226,87.95592335802631,139.76997528804964,93.67867281255552
0.2642275690920025,87.23525864012176,139.76997528804964,93.67867281255552
0.2341936567689651,86.37277879806965,139.76997528804964,93.67867281255552
0.2070137121498573,86.4798985790649,139.76997528804964,93.67867281255552
0.1830252402540937,87.96835877596799,139.76997528804964,93.67867281255552
0.1621846924423656,91.42541255411588,139.76997528804964,93.67867281255552
0.1446667351186651,96.94579475642328,139.76997528804964,93.67867281255552
0.1299333109126248,103.55626282937196,139.76997528804964,93.67867281255552
0.1180319544068588,110.8357556464605,139.76997528804964,93.67867281255552
0.1086102130808094,118.02106971351785,139.76997528804964,93.67867281255552
0.1015159019111958,124.52463645001644,139.76997528804964,93.67867281255552
0.0960591029852949,130.3183905179211,139.76997528804964,93.67867281255552
0.0919852465716314,134.83070625089482,139.76997528804964,93.67867281255552
0.0888671867825459,138.00128999158088,139.76997528804964,93.67867281255552
0.0863150824092453,139.4630115099687,139.76997528804964,93.67867281255552
0.0837919284081862,139.90507263161348,139.90507263161348,93.67867281255552
0.0808884855340233,139.40881675461162,139.90507263161348,93.67867281255552
0.0773748556675037,138.50718637835416,139.90507263161348,93.67867281255552
0.0728252833357211,137.47802624070215,139.90507263161348,93.67867281255552
0.0674543604518246,136.0981899442487,139.90507263161348,93.67867281255552
0.0609579872994301,134.54228200072228,139.90507263161348,93.67867281255552
0.0535836178365855,132.57728476061618,139.90507263161348,93.67867281255552
0.0452239435328906,130.22893186447865,139.90507263161348,93.67867281255552
0.0367342656035876,127.78694835117344,139.90507263161348,93.67867281255552
0.0281969003596578,125.23844830512566,139.90507263161348,93.67867281255552
0.0204687119136262,122.74875278231688,139.90507263161348,93.67867281255552
0.0139200234294197,120.4100490986259,139.90507263161348,93.67867281255552
0.0097698271400699,118.26339878254598,139.90507263161348,93.67867281255552
0.0085991419223425,116.41142455062686,139.90507263161348,93.67867281255552
0.0112260819981259,114.57029221129204,139.90507263161348,93.67867281255552
0.0184254805286256,112.785083460605,139.90507263161348,93.67867281255552
0.0308672751831199,110.61827083120735,139.90507263161348,93.67867281255552
0.0493187371257257,107.97556888664924,139.90507263161348,93.67867281255552
0.0738467976493048,105.21425232725554,139.90507263161348,93.67867281255552
0.1049817986025224,102.32365722465237,139.90507263161348,93.67867281255552
0.1421111523830393,99.9408517661095,139.90507263161348,93.67867281255552
0.1852452654700916,98.22129086804262,139.90507263161348,93.67867281255552
0.233456791911521,96.7595360371663,139.90507263161348,93.67867281255552
0.2862083703655984,95.73095356375656,139.90507263161348,93.67867281255552
0.3417795353507593,94.83331935068573,139.90507263161348,93.67867281255552
0.3992683989730149,94.02887218784107,139.90507263161348,93.67867281255552
0.4570452331527891,93.51155712940852,139.90507263161348,93.67867281255552
0.513920196841085,93.2030226158299,139.90507263161348,93.67867281255552
0.56824783610619,93.1563570911635,139.90507263161348,93.67867281255552
0.6186811669816888,93.38504878068694,139.90507263161348,93.67867281255552
0.6643127359692382,93.79777614002484,139.90507263161348,93.67867281255552
0.7038184503886974,94.40413171499772,139.90507263161348,93.67867281255552
0.7368085530569669,94.82115695423936,139.90507263161348,93.67867281255552
0.7623611247733217,94.98988757588891,139.90507263161348,93.67867281255552
0.7805088717201577,95.0899544731612,139.90507263161348,93.67867281255552
0.7907677848346493,94.99914926666922,139.90507263161348,93.67867281255552
0.7937645543257138,95.0186188836872,139.90507263161348,93.67867281255552
0.7893917156996119,95.1573777515181,139.90507263161348,93.67867281255552
0.7783678077359175,95.25573363182632,139.90507263161348,93.67867281255552
0.76087534938792,95.38131140851762,139.90507263161348,95.38131140851762
0.7380891569828502,95.36986275346864,139.90507263161348,95.38131140851762
0.710431028612689,95.19863343708576,139.90507263161348,95.38131140851762
0.6787157512941613,94.9759565165266,139.90507263161348,95.38131140851762
0.6436059660959437,94.65700581124092,139.90507263161348,95.38131140851762
0.6060732475417843,94.31166996102245,139.90507263161348,95.38131140851762
0.5668436696394215,93.95094309025843,139.90507263161348,95.38131140851762
0.526502944359856,93.56007457801373,139.90507263161348,95.38131140851762
0.4858287008121079,93.16137464209577,139.90507263161348,95.38131140851762
0.4454781676616999,92.74811486159206,139.90507263161348,95.38131140851762
0.4061603315390599,92.32869163177467,139.90507263161348,95.38131140851762
0.3682939895817181,91.93221942445416,139.90507263161348,95.38131140851762
0.3325468860500031,91.56562114255004,139.90507263161348,95.38131140851762
0.2990353277686282,91.26748677483384,139.90507263161348,95.38131140851762
0.2683023075960501,91.05429650509475,139.90507263161348,95.38131140851762
0.2405110674788551,90.9036737190298,139.90507263161348,95.38131140851762
0.2160514646346338,90.83386638247056,139.90507263161348,95.38131140851762
0.1945857001266439,91.65384563832647,139.90507263161348,95.38131140851762
0.1763721577596398,93.67684701438046,139.90507263161348,95.38131140851762
0.1612314077966436,97.4774666569102,139.90507263161348,95.38131140851762
0.1492154474089343,103.19165266266884,139.90507263161348,95.38131140851762
0.1397536427209142,109.89375529304408,139.90507263161348,95.38131140851762
0.1327784266351111,117.19082240131216,139.90507263161348,95.38131140851762
0.12785752322855,124.35925885933835,139.90507263161348,95.38131140851762
0.1247500966766053,130.8468613162136,139.90507263161348,95.38131140851762
0.122719663270811,136.5445796907975,139.90507263161348,95.38131140851762
0.1214285957712447,140.90503488137898,139.90507263161348,95.38131140851762
0.1205636891263792,143.94355176388444,139.90507263161348,95.38131140851762
0.119682309176331,145.29350376807682,139.90507263161348,95.38131140851762
0.1184134106676102,145.76642555574222,145.76642555574222,95.38131140851762
0.1163628938591691,145.34405451031796,145.76642555574222,95.38131140851762
0.1133788629550279,144.38634051475913,145.76642555574222,95.38131140851762
0.1090963882498313,143.13087965623822,145.76642555574222,95.38131140851762
0.1037949469636198,141.44286992943788,145.76642555574222,95.38131140851762
0.097234403497376,139.5441554541514,145.76642555574222,95.38131140851762
0.0897789765296078,137.39908459687967,145.76642555574222,95.38131140851762
0.081390870737962,135.1035984417403,145.76642555574222,95.38131140851762
0.0729581792059469,132.73824219684985,145.76642555574222,95.38131140851762
0.0646419615859923,130.36622103818536,145.76642555574222,95.38131140851762
0.057253424681037,128.056410074913,145.76642555574222,95.38131140851762
0.0512155054584845,125.8789719141812,145.76642555574222,95.38131140851762
0.0477053218846666,123.64874904950184,145.76642555574222,95.38131140851762
0.0473203946193872,121.40894212054094,145.76642555574222,95.38131140851762
0.0507451449889466,119.24317828966396,145.76642555574222,95.38131140851762
0.058740721106532,117.13595138683527,145.76642555574222,95.38131140851762
0.0718077863713578,114.86501692993131,145.76642555574222,95.38131140851762
0.0906516100108646,112.4241196260148,145.76642555574222,95.38131140851762
0.1152698863223049,110.03308731605836,145.76642555574222,95.38131140851762
0.1461104699548057,107.647874418491,145.76642555574222,95.38131140851762
0.1825071248740625,105.60516123387006,145.76642555574222,95.38131140851762
0.2244346450904842,103.9759078399662,145.76642555574222,95.38131140851762
0.2709414159365567,102.58222679786928,145.76642555574222,95.38131140851762
0.3215089950170106,101.5387707531482,145.76642555574222,95.38131140851762
0.3744946051639259,100.7100796357602,145.76642555574222,95.38131140851762
0.4290637633196472,100.10092538583508,145.76642555574222,95.38131140851762
0.4836685827556884,99.80948342960043,145.76642555574222,95.38131140851762
0.5371887698121958,99.81582629469116,145.76642555574222,95.38131140851762
0.5880590040901136,99.85635512996168,145.76642555574222,95.38131140851762
0.6350062914528428,99.9203528506711,145.76642555574222,95.38131140851762
0.6771681377462072,100.12298163794068,145.76642555574222,95.38131140851762
0.713270559148892,100.39506479395554,145.76642555574222,95.38131140851762
0.7430871884043673,100.68897249333622,145.76642555574222,95.38131140851762
0.7657313277142572,100.9921854942178,145.76642555574222,95.38131140851762
0.7811928413857838,101.26226151017084,145.76642555574222,95.38131140851762
0.7890299386256268,101.47113824226923,145.76642555574222,95.38131140851762
0.7898846372756941,101.603414533932,145.76642555574222,95.38131140851762
0.783650080463014,101.62900932642744,145.76642555574222,95.38131140851762
0.7710626231720512,101.64928912511527,145.76642555574222,95.38131140851762
0.7523049372310403,101.6519169962961,145.76642555574222,95.38131140851762
0.7285163997501136,101.59212741492614,145.76642555574222,95.38131140851762
0.7001202777903541,101.4853498778514,145.76642555574222,95.38131140851762
0.6679325891866855,101.26162011359544,145.76642555574222,95.38131140851762
0.6326069974872709,100.90940177703074,145.76642555574222,95.38131140851762
0.5951525662812459,100.53798383917211,145.76642555574222,95.38131140851762
0.5562945213125706,100.13310432588622,145.76642555574222,95.38131140851762
0.5165338847882092,99.7137868733337,145.76642555574222,95.38131140851762
0.4766491963236196,99.30400615297997,145.76642555574222,95.38131140851762
0.4371820568454164,98.96737055513968,145.76642555574222,95.38131140851762
0.3988062561024319,98.72878548835772,145.76642555574222,95.38131140851762
0.3619254769277061,98.58121845995072,145.76642555574222,95.38131140851762
0.3271534149806289,98.55710994749596,145.76642555574222,95.38131140851762
0.2945757890639855,98.3921287457648,145.76642555574222,95.38131140851762
0.2646957556853554,98.07674010644894,145.76642555574222,95.38131140851762
0.2376489945492407,97.68930208437214,145.76642555574222,95.38131140851762
0.2137887324834334,97.39157885030733,145.76642555574222,95.38131140851762
0.1928190883407379,98.32608901715167,145.76642555574222,95.38131140851762
0.1749722988928459,100.85188930128272,145.76642555574222,95.38131140851762
0.1600469375689129,105.36891593484518,145.76642555574222,95.38131140851762
0.1480879076658904,111.75550020348363,145.76642555574222,95.38131140851762
0.1384624666524309,118.91305223753194,145.76642555574222,95.38131140851762
0.1310852305674693,126.45509838039172,145.76642555574222,95.38131140851762
0.125567156264229,133.7600300832801,145.76642555574222,95.38131140851762
0.121643933967367,140.2755493143154,145.76642555574222,95.38131140851762
0.1186545792943128,145.8822766215347,145.76642555574222,95.38131140851762
0.1162671656898028,150.06064494456766,145.76642555574222,95.38131140851762
0.1141504960574346,152.82568233551962,145.76642555574222,95.38131140851762
0.1118834511103994,153.94043410589703,145.76642555574222,95.38131140851762
0.1090766161877077,154.28216125747906,154.28216125747906,95.38131140851762
0.1053414826268887,153.81842389773865,154.28216125747906,95.38131140851762
0.100594748753066,152.7811970459287,154.28216125747906,95.38131140851762
0.0944775668747074,151.41123501055742,154.28216125747906,95.38131140851762
0.0873129550730939,149.65464994178143,154.28216125747906,95.38131140851762
0.0788882422387911,147.70683657554196,154.28216125747906,95.38131140851762
0.0695928954043108,145.69086313815288,154.28216125747906,95.38131140851762
0.059419885238081,143.72678377853708,154.28216125747906,95.38131140851762
0.0493462593196452,141.62349308404183,154.28216125747906,95.38131140851762
0.0395681318559482,139.47332892025184,154.28216125747906,95.38131140851762
0.0309356265652573,137.35571724505127,154.28216125747906,95.38131140851762
0.0239220668775339,135.28336926018338,154.28216125747906,95.38131140851762
0.0196883802980193,133.1696822156593,154.28216125747906,95.38131140851762
0.0188716959097432,131.0395368113646,154.28216125747906,95.38131140851762
0.022220388726797,128.90070927771353,154.28216125747906,95.38131140851762
0.0305225522463072,126.74446257257064,154.28216125747906,95.38131140851762
0.0443116476381611,124.43213121990388,154.28216125747906,95.38131140851762
0.0643314639521408,121.947786731075,154.28216125747906,95.38131140851762
0.0904954944587838,119.54161335096356,154.28216125747906,95.38131140851762
0.1232363242402637,117.19094815494184,154.28216125747906,95.38131140851762
0.1618213376832556,115.13465619017578,154.28216125747906,95.38131140851762
0.2061451344817733,113.45390164993468,154.28216125747906,95.38131140851762
0.2551774330614918,112.01782463477436,154.28216125747906,95.38131140851762
0.3082947087360765,110.925261544332,154.28216125747906,95.38131140851762
0.3637002817621528,109.96365432378724,154.28216125747906,95.38131140851762
0.420456234549805,109.13449026386658,154.28216125747906,95.38131140851762
0.4769631239324091,108.62099554253044,154.28216125747906,95.38131140851762
0.531988317641732,108.38775205818348,154.28216125747906,95.38131140851762
0.5840670407738773,108.30931875512432,154.28216125747906,95.38131140851762
0.6318533463586886,108.40409018521255,154.28216125747906,95.38131140851762
0.6744729455641117,108.71631946744397,154.28216125747906,95.38131140851762
0.7106914509960331,109.22420767440596,154.28216125747906,95.38131140851762
0.7403437368748346,109.6776335362036,154.28216125747906,95.38131140851762
0.7626002176588952,110.05168862179336,154.28216125747906,95.38131140851762
0.7775368284763411,110.4480766773415,154.28216125747906,95.38131140851762
0.7847776596357204,110.791839463158,154.28216125747906,95.38131140851762
0.7850474507825187,111.07675719984054,154.28216125747906,95.38131140851762
0.7782951477462626,111.28684457612056,154.28216125747906,95.38131140851762
0.765274392717612,111.34917102376808,154.28216125747906,111.34917102376808
0.7462198095517435,111.24191854206532,154.28216125747906,111.34917102376808
0.7222814264584594,111.1019838075302,154.28216125747906,111.34917102376808
0.6939206568476829,110.90980475209444,154.28216125747906,111.34917102376808
0.6618709047020042,110.61296715050696,154.28216125747906,111.34917102376808
0.6268044660631221,110.23234715489086,154.28216125747906,111.34917102376808
0.5895664409293585,109.45470195012904,154.28216125747906,111.34917102376808
0.55085436685362,108.2440809581314,154.28216125747906,111.34917102376808
0.5112289449237207,106.56499511687272,154.28216125747906,111.34917102376808
0.471413892808125,104.65941719058677,154.28216125747906,111.34917102376808
0.4319204149639634,103.81893041177396,154.28216125747906,111.34917102376808
0.3934033859395772,104.53383369237416,154.28216125747906,111.34917102376808
0.3562768975990691,106.98540304163288,154.28216125747906,111.34917102376808
0.3211338738751224,110.29656804256548,154.28216125747906,111.34917102376808
0.2880663270062038,112.42105608123866,154.28216125747906,111.34917102376808
0.2575682665747352,112.47756028751324,154.28216125747906,111.34917102376808
0.2298156851749528,110.39816491555725,154.28216125747906,111.34917102376808
0.2051615535962363,107.45100204195776,154.28216125747906,111.34917102376808
0.1832965697047499,106.12042321536862,154.28216125747906,111.34917102376808
0.1644623393003725,107.7453716174769,154.28216125747906,111.34917102376808
0.1485173552593619,112.91235665652296,154.28216125747906,111.34917102376808
0.1355142524177232,120.9029784452764,154.28216125747906,111.34917102376808
0.1249244549695643,129.72042319319613,154.28216125747906,111.34917102376808
0.1166949630299379,138.2833104334499,154.28216125747906,111.34917102376808
0.1104340292574715,145.77392867971454,154.28216125747906,111.34917102376808
0.1059251341797206,151.9225940493942,154.28216125747906,111.34917102376808
0.1024669994882401,157.04138630862815,154.28216125747906,111.34917102376808
0.0997515380071676,160.72931447885776,154.28216125747906,111.34917102376808
0.0974950464141191,162.9485298151136,154.28216125747906,111.34917102376808
0.0952857768367375,163.54164447767027,163.54164447767027,111.34917102376808
0.0927794737872244,163.36616920406397,163.54164447767027,111.34917102376808
0.0896120515299613,162.76868785588704,163.54164447767027,111.34917102376808
0.0856609875590265,162.24755627034432,163.54164447767027,111.34917102376808
0.080590435191405,162.06655376917797,163.54164447767027,111.34917102376808
0.0747156688104135,161.50023296741298,163.54164447767027,111.34917102376808
0.0678264512496258,160.41008456392757,163.54164447767027,111.34917102376808
0.0603279623635749,158.46615309388935,163.54164447767027,111.34917102376808
0.0522150624409277,155.7095992966171,163.54164447767027,111.34917102376808
0.044414847897188,152.9936596377367,163.54164447767027,111.34917102376808
0.0371238922121361,150.37295678165924,163.54164447767027,111.34917102376808
0.0311779439371488,148.07805798413082,163.54164447767027,111.34917102376808
0.0270351726439918,146.0742434940341,163.54164447767027,111.34917102376808
0.0258665432199717,143.62567138453807,163.54164447767027,111.34917102376808
0.0282975606735036,140.7040395818918,163.54164447767027,111.34917102376808
0.0349624242590125,137.2085741399452,163.54164447767027,111.34917102376808
0.0466329663699002,133.40144991592786,163.54164447767027,111.34917102376808
0.0637048268304469,130.47310060999533,163.54164447767027,111.34917102376808
0.0868657464000661,128.7558410708751,163.54164447767027,111.34917102376808
0.1159879019683998,128.40232620433147,163.54164447767027,111.34917102376808
0.1514311880293078,128.8357734439986,163.54164447767027,111.34917102376808
0.1924014183134518,128.63232979262523,163.54164447767027,111.34917102376808
0.2387662519105226,127.37461998561182,163.54164447767027,111.34917102376808
0.2894389381874347,125.09057867222172,163.54164447767027,111.34917102376808
0.3438032849700124,122.2559117528377,163.54164447767027,111.34917102376808
0.400120751378031,119.87826418744434,163.54164447767027,111.34917102376808
0.4574838274781862,118.32130807421858,163.54164447767027,111.34917102376808
0.5143539865118278,117.54497306820058,163.54164447767027,111.34917102376808
0.5695388678520552,117.6337759315584,163.54164447767027,111.34917102376808
0.6216121140098347,118.01037475517616,163.54164447767027,111.34917102376808
0.6692732007714701,118.6690253608774,163.54164447767027,111.34917102376808
0.71174448834261,119.3335497385911,163.54164447767027,111.34917102376808
0.7478513545220817,119.81405182494126,163.54164447767027,111.34917102376808
0.7774989214562955,120.29941277616626,163.54164447767027,111.34917102376808
0.7999256410160345,120.62297323514844,163.54164447767027,111.34917102376808
0.8152116721247991,120.99491833938856,163.54164447767027,111.34917102376808
0.8230138641323582,121.38612182760244,163.54164447767027,111.34917102376808
0.8241063749195907,121.79294278000604,163.54164447767027,111.34917102376808
0.8184313121979157,122.24973483469866,163.54164447767027,111.34917102376808
0.806792486840327,122.51217866335578,163.54164447767027,111.34917102376808
0.7894411670039503,122.57235718108156,163.54164447767027,122.57235718108156
0.7674908766481109,122.36056770089483,163.54164447767027,122.57235718108156
0.74142253411332,121.7981114233684,163.54164447767027,122.57235718108156
0.7119394076080641,121.44022018645782,163.54164447767027,122.57235718108156
0.6797123331617949,121.2792281064925,163.54164447767027,122.57235718108156
0.6455419053388185,121.34007064791612,163.54164447767027,122.57235718108156
0.6101126850373282,121.6313641958674,163.54164447767027,122.57235718108156
0.5739833357955176,121.65105617563466,163.54164447767027,122.57235718108156
0.5378574031263883,121.35903141553108,163.54164447767027,122.57235718108156
0.5019957513846267,121.00598906504092,163.54164447767027,122.57235718108156
0.4670148134546407,120.48398664668171,163.54164447767027,122.57235718108156
0.4333667739918879,119.97756845193987,163.54164447767027,122.57235718108156
0.4015553460678936,119.51270157901932,163.54164447767027,122.57235718108156
0.3716347319240316,118.92358199451154,163.54164447767027,122.57235718108156
0.3440530950839119,118.25479589391117,163.54164447767027,122.57235718108156
0.3189736081985014,117.77682594696604,163.54164447767027,122.57235718108156
0.2967070566477237,117.6872028517298,163.54164447767027,122.57235718108156
0.2770132355167866,119.20657793327382,163.54164447767027,122.57235718108156
0.2601110952192869,122.65123795795093,163.54164447767027,122.57235718108156
0.2458929271356823,128.48949145958375,163.54164447767027,122.57235718108156
0.234419381423683,136.93920601445947,163.54164447767027,122.57235718108156
0.2251744636922381,146.9062299464425,163.54164447767027,122.57235718108156
0.2181194867704191,157.34052929713187,163.54164447767027,122.57235718108156
0.2130329635971673,166.52429927976098,163.54164447767027,122.57235718108156
0.2097279636110715,173.3847094791521,163.54164447767027,122.57235718108156
0.2077420244391756,177.79889350433416,163.54164447767027,122.57235718108156
0.2068569725975022,179.60098244580013,179.60098244580013,122.57235718108156
0.2069288616206346,179.47943255442635,179.60098244580013,122.57235718108156
0.2076800149503914,177.53894911656016,179.60098244580013,122.57235718108156
0.2088711062568985,175.05881777722857,179.60098244580013,122.57235718108156
0.2102686863517192,172.41607826951605,179.60098244580013,122.57235718108156
0.2118224289436412,169.96833237675037,179.60098244580013,122.57235718108156
0.2133140495709321,167.88435232945312,179.60098244580013,122.57235718108156
0.2149189522278399,165.74425830465586,179.60098244580013,122.57235718108156
0.2165058296225342,163.71882317550688,179.60098244580013,122.57235718108156
0.2181010610039085,162.21123275025957,179.60098244580013,122.57235718108156
