PPG,ABP,SBP,DBP
0.3633573683682061,93.73808042732044,107.97992721510474,54.990793454328056
0.3611098105726208,90.94593643786229,107.97992721510474,54.990793454328056
0.3585283252957074,88.16239821005419,107.97992721510474,54.990793454328056
0.3553081815631458,85.20182357527551,107.97992721510474,54.990793454328056
0.3514382151513113,82.12804635486093,107.97992721510474,54.990793454328056
0.3472677061161258,79.06135654168811,107.97992721510474,54.990793454328056
0.3430593721259367,75.87675922482558,107.97992721510474,54.990793454328056
0.3390223091868068,72.63937470019418,107.97992721510474,54.990793454328056
0.3355292710675431,69.354716142252,107.97992721510474,54.990793454328056
0.3328277012918126,66.03093413231778,107.97992721510474,54.990793454328056
0.331965774401349,62.860175020651496,107.97992721510474,54.990793454328056
0.33330676939066,59.87140854528155,107.97992721510474,54.990793454328056
0.3371908190841075,57.219034203892846,107.97992721510474,54.990793454328056
0.3441657660171148,54.989784181012205,107.97992721510474,54.990793454328056
0.354701008702541,53.16083841817852,107.97992721510474,54.990793454328056
0.3692695138978663,51.8239922596259,107.97992721510474,54.990793454328056
0.3876849496453009,50.833058306137815,107.97992721510474,54.990793454328056
0.4103548626662858,50.22292647310066,107.97992721510474,54.990793454328056
0.4362387179252625,49.79748015009139,107.97992721510474,54.990793454328056
0.4654312954719009,49.51961424303661,107.97992721510474,54.990793454328056
0.4968946340030138,49.41675724183328,107.97992721510474,54.990793454328056
0.5303025829338794,49.41711819934811,107.97992721510474,54.990793454328056
0.563761898283148,49.62177179354076,107.97992721510474,54.990793454328056
0.5966046585684319,50.00617035794008,107.97992721510474,54.990793454328056
0.627777221463033,50.54765232248872,107.97992721510474,54.990793454328056
0.6562436927072802,51.25495760819,107.97992721510474,54.990793454328056
0.6809599275395777,51.92572418215173,107.97992721510474,54.990793454328056
0.7009011267358988,52.53661618390274,107.97992721510474,54.990793454328056
0.7156032109117835,52.99796998885174,107.97992721510474,54.990793454328056
0.7240931552186876,53.230839018807714,107.97992721510474,54.990793454328056
0.7268077476922786,53.34159004954833,107.97992721510474,54.990793454328056
0.7230595750219453,53.26990052541876,107.97992721510474,54.990793454328056
0.7133206142180243,53.08263436676012,107.97992721510474,54.990793454328056
0.6973252547405658,52.77849940699822,107.97992721510474,54.990793454328056
0.6763608507423255,52.32783452726152,107.97992721510474,54.990793454328056
0.6505093046444285,51.74284592805285,107.97992721510474,54.990793454328056
0.620610972625839,51.05977731363386,107.97992721510474,54.990793454328056
0.5871482532734688,50.280934533919336,107.97992721510474,54.990793454328056
0.5516058285236711,49.6259494017689,107.97992721510474,54.990793454328056
0.5146513319976929,49.12948042696885,107.97992721510474,54.990793454328056
0.4769036001871096,48.66428765728586,107.97992721510474,54.990793454328056
0.4392460975416205,48.26719831686166,107.97992721510474,54.990793454328056
0.4025106178636043,47.772619433664495,107.97992721510474,54.990793454328056
0.3674910883806567,47.202686624895726,107.97992721510474,54.990793454328056
0.3348126867411726,47.16919099086122,107.97992721510474,54.990793454328056
0.3052667197383111,48.25585516865075,107.97992721510474,54.990793454328056
0.2788882540012253,51.321194241004456,107.97992721510474,54.990793454328056
0.2563442376008644,56.78046251261459,107.97992721510474,54.990793454328056
0.2378748009129361,64.06841386381748,107.97992721510474,54.990793454328056
0.2239312880268991,72.36753541775784,107.97992721510474,54.990793454328056
0.2139867544994317,80.47532027843923,107.97992721510474,54.990793454328056
0.2083424703567484,87.66215519198684,107.97992721510474,54.990793454328056
0.2067970437986544,93.93809404958223,107.97992721510474,54.990793454328056
0.2093743993898153,99.1737405941934,107.97992721510474,54.990793454328056
0.2150685333555216,103.33340478772192,107.97992721510474,54.990793454328056
0.223746861835274,106.3088742521981,107.97992721510474,54.990793454328056
0.2349507912682875,107.8907943836582,107.97992721510474,54.990793454328056
0.2482761806091565,107.97992721510474,107.97992721510474,54.990793454328056
0.2626857763717516,106.99934678469322,107.97992721510474,54.990793454328056
0.2777074752124032,105.09536564439388,107.97992721510474,54.990793454328056
0.2929341645696786,102.60815606827776,107.97992721510474,54.990793454328056
0.3077448992955194,99.77038628771824,107.97992721510474,54.990793454328056
0.3215177436095374,96.69901791906032,107.97992721510474,54.990793454328056
0.3336985275193853,93.61382434308103,107.97992721510474,54.990793454328056
0.3441617397956323,90.37066502161964,107.97992721510474,54.990793454328056
0.3523752370072726,87.11996546856517,107.97992721510474,54.990793454328056
0.3588505200359231,83.64533206869025,107.97992721510474,54.990793454328056
0.3632760121568388,79.97992797597071,107.97992721510474,54.990793454328056
0.3660224040001718,76.31531877483584,107.97992721510474,54.990793454328056
0.3670692665986636,72.63630686706747,107.97992721510474,54.990793454328056
0.3676728159787129,69.08322984562275,107.97992721510474,54.990793454328056
0.3680404384466906,65.7171699331762,107.97992721510474,54.990793454328056
0.3687906373316466,62.59812683792486,107.97992721510474,54.990793454328056
0.3704570799752494,59.80581226988081,107.97992721510474,54.990793454328056
0.3739727472905818,57.445539553168295,107.97992721510474,54.990793454328056
0.3799212160675526,55.593264794229846,107.97992721510474,54.990793454328056
0.3886004557280207,54.19782906917977,107.97992721510474,54.990793454328056
0.4006604393522873,53.33051871509966,107.97992721510474,54.990793454328056
0.4158904683994417,52.7345440540557,107.97992721510474,54.990793454328056
0.4347500516029,52.41326215694346,107.97992721510474,54.990793454328056
0.4565726847588909,52.29864312157723,107.97992721510474,54.990793454328056
0.4815225848598576,52.31678839222149,107.97992721510474,54.990793454328056
0.5080820847480212,52.484226944973145,107.97992721510474,54.990793454328056
0.53602265314862,52.741569369678295,107.97992721510474,54.990793454328056
0.5641786909196678,53.12047605402371,107.97992721510474,54.990793454328056
0.5918813733262758,53.59157503837215,107.97992721510474,54.990793454328056
0.6174391247564461,54.05576802729027,107.97992721510474,54.990793454328056
0.6399586385675319,54.492259163099895,107.97992721510474,54.990793454328056
0.6589095154265161,54.80835147547037,107.97992721510474,54.990793454328056
0.6732220270777395,54.95347144744572,107.97992721510474,54.990793454328056
0.6825160958312484,54.990793454328056,107.97992721510474,54.990793454328056
0.6859525043431033,54.87099644767947,107.97992721510474,54.990793454328056
0.6836691764500291,54.62836991454509,107.97992721510474,54.990793454328056
0.6750457666506081,54.25372280185905,107.97992721510474,54.990793454328056
0.6609881062616143,53.779921417430266,107.97992721510474,54.990793454328056
0.641235746380216,53.2124642797577,107.97992721510474,54.990793454328056
0.6165271416326678,52.6265971201359,107.97992721510474,54.990793454328056
0.587015522653914,52.04200502799269,107.97992721510474,54.990793454328056
0.5540797809522859,51.54783921563163,107.97992721510474,54.990793454328056
0.518144570073938,51.1858802813808,107.97992721510474,54.990793454328056
0.479996243329307,50.85598660003359,107.97992721510474,54.990793454328056
0.4403520874935914,50.597612719228216,107.97992721510474,54.990793454328056
0.4004677481751361,50.26596708238556,107.97992721510474,54.990793454328056
0.3611218544910206,49.84245691728666,107.97992721510474,54.990793454328056
0.322735078742589,49.43361578844657,107.97992721510474,54.990793454328056
0.2861802987013833,49.24939048693689,107.97992721510474,54.990793454328056
0.2517768092394664,50.14210079454899,107.97992721510474,54.990793454328056
0.220209221468638,52.66616687019073,107.97992721510474,54.990793454328056
0.1916721983329439,57.257541461756304,107.97992721510474,54.990793454328056
0.1667060229202519,63.80839297978063,107.97992721510474,54.990793454328056
0.1448120662985377,71.37395482589739,107.97992721510474,54.990793454328056
0.126333286077428,79.1310494469262,107.97992721510474,54.990793454328056
0.1110389377092254,86.3522618509892,107.97992721510474,54.990793454328056
0.0989857406103083,92.72456034265294,107.97992721510474,54.990793454328056
0.0893076643117562,98.38166968408844,107.97992721510474,54.990793454328056
0.0818989138751567,103.00122156690358,107.97992721510474,54.990793454328056
0.076432602308134,106.25586026144168,107.97992721510474,54.990793454328056
0.0725742279578173,107.94090012829972,107.97992721510474,54.990793454328056
0.0694607861896399,108.09478996223244,108.09478996223244,54.990793454328056
0.0667160339897071,107.00588389010912,108.09478996223244,54.990793454328056
0.0642962983592258,105.29949636295282,108.09478996223244,54.990793454328056
0.0617248370785047,103.20582817370824,108.09478996223244,54.990793454328056
0.0588589703042371,100.94095858330064,108.09478996223244,54.990793454328056
0.0553825422054436,98.55492515918124,108.09478996223244,54.990793454328056
0.0513196395265632,95.881810330846,108.09478996223244,54.990793454328056
0.0464304419788779,93.00432439643902,108.09478996223244,54.990793454328056
0.0413392640587032,89.99778428257878,108.09478996223244,54.990793454328056
0.0359658087696881,86.87283767355159,108.09478996223244,54.990793454328056
0.0307157795708829,83.74507874748188,108.09478996223244,54.990793454328056
0.025749375546131,80.65742732270215,108.09478996223244,54.990793454328056
0.0221712833326946,77.43201120511641,108.09478996223244,54.990793454328056
0.0202967784576421,74.10794151030582,108.09478996223244,54.990793454328056
0.0206613043592554,70.83023459769176,108.09478996223244,54.990793454328056
0.0238172809195597,67.61994605222962,108.09478996223244,54.990793454328056
0.0307003041506816,64.77884018717643,108.09478996223244,54.990793454328056
0.041886560270273,62.39249709282915,108.09478996223244,54.990793454328056
0.0577026754078659,60.362773508194486,108.09478996223244,54.990793454328056
0.0787989540038525,58.814061045703184,108.09478996223244,54.990793454328056
0.1047527826659709,57.64108988306486,108.09478996223244,54.990793454328056
0.1360097513891305,56.8803534803746,108.09478996223244,54.990793454328056
0.1720829187665207,56.46628418190588,108.09478996223244,54.990793454328056
0.2130875693738624,56.38911549139839,108.09478996223244,54.990793454328056
0.2574288131788286,56.495861608278894,108.09478996223244,54.990793454328056
0.3048920318482604,56.74847685986683,108.09478996223244,54.990793454328056
0.3540712810036012,57.1547201444354,108.09478996223244,54.990793454328056
0.4042570017333746,57.65029359921611,108.09478996223244,54.990793454328056
0.4535140598783906,58.19308010901782,108.09478996223244,54.990793454328056
0.5008340134793713,58.74250139826045,108.09478996223244,54.990793454328056
0.5452179876254515,59.25359886905863,108.09478996223244,54.990793454328056
0.5854121184136472,59.68382026261792,108.09478996223244,54.990793454328056
0.620518049931035,60.04419380934224,108.09478996223244,54.990793454328056
0.6494013851206764,60.29709762855545,108.09478996223244,54.990793454328056
0.6719192599232655,60.374966866638765,108.09478996223244,60.374966866638765
0.6871001068747057,60.25052858073872,108.09478996223244,60.374966866638765
0.695632810720584,59.97568030774096,108.09478996223244,60.374966866638765
0.6969418730486379,59.519510820422056,108.09478996223244,60.374966866638765
0.6916398552483187,58.97709143363055,108.09478996223244,60.374966866638765
0.6796102856166076,58.35389320673456,108.09478996223244,60.374966866638765
0.6623096062406144,57.67026147705025,108.09478996223244,60.374966866638765
0.6399667979243561,56.95667871399757,108.09478996223244,60.374966866638765
0.6134462655941706,56.21409955808191,108.09478996223244,60.374966866638765
0.5833710962388988,55.46597075587643,108.09478996223244,60.374966866638765
0.5511146226075129,54.67714495272861,108.09478996223244,60.374966866638765
0.5174267731745179,53.85904702992924,108.09478996223244,60.374966866638765
0.4830042283302165,53.07558561572336,108.09478996223244,60.374966866638765
0.4487606125979612,52.33106635123101,108.09478996223244,60.374966866638765
0.4156070845955072,52.04557650640589,108.09478996223244,60.374966866638765
0.3843885810858659,52.67396084162592,108.09478996223244,60.374966866638765
0.3555510682133199,55.02894288367457,108.09478996223244,60.374966866638765
0.3299201665675356,59.57172188346034,108.09478996223244,60.374966866638765
0.307345582324546,66.10695744211213,108.09478996223244,60.374966866638765
0.2884467898410661,73.99199307371242,108.09478996223244,60.374966866638765
0.2732386888730075,82.02629687212377,108.09478996223244,60.374966866638765
0.2620719055521727,89.59389510306164,108.09478996223244,60.374966866638765
0.254034933003239,96.31651774562744,108.09478996223244,60.374966866638765
0.2492666008845246,102.05734108224598,108.09478996223244,60.374966866638765
0.2473302657806743,106.760017273523,108.09478996223244,60.374966866638765
0.248020399019828,110.20618262184948,108.09478996223244,60.374966866638765
0.2502555128184175,112.25416337855376,108.09478996223244,60.374966866638765
0.2536908731488752,112.81672897346526,112.81672897346526,60.374966866638765
0.2578044102278329,112.29648650876136,112.81672897346526,60.374966866638765
0.26203270716415,110.91302170675765,112.81672897346526,60.374966866638765
0.2655782158911775,109.07426014861488,112.81672897346526,60.374966866638765
0.2678750870794976,106.9827523028154,112.81672897346526,60.374966866638765
0.268643369841534,104.42588098416228,112.81672897346526,60.374966866638765
0.2672817086444992,101.60759978058692,112.81672897346526,60.374966866638765
0.2642303818699421,98.5703529690306,112.81672897346526,60.374966866638765
0.2590871138751936,95.38445902072507,112.81672897346526,60.374966866638765
0.2520808763253123,92.1544712860376,112.81672897346526,60.374966866638765
0.2431017458822391,88.9525540372951,112.81672897346526,60.374966866638765
0.233325443850959,85.60621530814957,112.81672897346526,60.374966866638765
0.2228560718105297,82.17144439584199,112.81672897346526,60.374966866638765
0.212581285202895,78.75709343242114,112.81672897346526,60.374966866638765
0.2029768344398468,75.36119422738471,112.81672897346526,60.374966866638765
0.1955059690311661,72.23278294741465,112.81672897346526,60.374966866638765
0.1908446245959598,69.42950489563432,112.81672897346526,60.374966866638765
0.1896404348139088,67.02242474086916,112.81672897346526,60.374966866638765
0.1927782405167906,65.1215570334867,112.81672897346526,60.374966866638765
0.2009163546774989,63.56329881240117,112.81672897346526,60.374966866638765
0.2148400991641855,62.41615716834532,112.81672897346526,60.374966866638765
0.2344246941170437,61.5822630182205,112.81672897346526,60.374966866638765
0.2603307052648769,61.04974593539031,112.81672897346526,60.374966866638765
0.2914464377432345,60.76371548354789,112.81672897346526,60.374966866638765
0.3280353003191265,60.68742762539614,112.81672897346526,60.374966866638765
0.3688486603780231,60.81181109257484,112.81672897346526,60.374966866638765
0.4136265189552718,61.09902009818753,112.81672897346526,60.374966866638765
0.4601259025926371,61.482965011021285,112.81672897346526,60.374966866638765
0.5076292341172522,61.931021571058736,112.81672897346526,60.374966866638765
0.5546294636723872,62.4293393787646,112.81672897346526,60.374966866638765
0.5999205683319039,62.93759148899045,112.81672897346526,60.374966866638765
0.6419725208606804,63.34928844565548,112.81672897346526,60.374966866638765
0.679483907711604,63.62508032702839,112.81672897346526,60.374966866638765
0.7115580672629855,63.72020640308002,112.81672897346526,63.72020640308002
0.7368754556980892,63.57586641958338,112.81672897346526,63.72020640308002
0.7555724909571494,63.32810707146476,112.81672897346526,63.72020640308002
0.7665990455440798,62.9430200996842,112.81672897346526,63.72020640308002
0.7703040976955299,62.51093702045952,112.81672897346526,63.72020640308002
0.7661022441267679,62.057305104177736,112.81672897346526,63.72020640308002
0.7553320591503428,61.55254557861348,112.81672897346526,63.72020640308002
0.7378471140039544,61.03192674907943,112.81672897346526,63.72020640308002
0.7146702933790281,60.50911389805712,112.81672897346526,63.72020640308002
0.6861722278069387,59.9984950581485,112.81672897346526,63.72020640308002
0.6540870011297649,59.53623411476414,112.81672897346526,63.72020640308002
0.6190849122355739,59.13971811438945,112.81672897346526,63.72020640308002
0.5820463658601931,58.7455091120562,112.81672897346526,63.72020640308002
0.5439481447634935,58.367808087014105,112.81672897346526,63.72020640308002
0.5058300860073506,57.9158285322506,112.81672897346526,63.72020640308002
0.4686343076096769,57.5276387112924,112.81672897346526,63.72020640308002
0.4330859972374061,57.94093649769113,112.81672897346526,63.72020640308002
0.4001339717255029,59.75867373957152,112.81672897346526,63.72020640308002
0.3697962171364906,63.66374251617691,112.81672897346526,63.72020640308002
0.3428626497315213,69.73925996975274,112.81672897346526,63.72020640308002
0.3194109072452041,77.12699704301436,112.81672897346526,63.72020640308002
0.2999481913287019,84.97814212220347,112.81672897346526,63.72020640308002
0.2837105021378446,92.3635853743415,112.81672897346526,63.72020640308002
0.270966605749043,98.83865651617232,112.81672897346526,63.72020640308002
0.2612876792066777,104.59360067585628,112.81672897346526,63.72020640308002
0.2545917187749958,109.384869328481,112.81672897346526,63.72020640308002
0.2496822492717496,112.97305831370468,112.81672897346526,63.72020640308002
0.2462813237580613,115.1922008184153,112.81672897346526,63.72020640308002
0.2439753807270799,115.92954991497406,115.92954991497406,63.72020640308002
0.2422236642058202,115.31912018939684,115.92954991497406,63.72020640308002
0.2403730314351862,113.97568671037946,115.92954991497406,63.72020640308002
0.2379189555389481,112.09048846077934,115.92954991497406,63.72020640308002
0.2344590352206659,109.87522676312038,115.92954991497406,63.72020640308002
0.2294558672543896,107.51580770080204,115.92954991497406,63.72020640308002
0.2232055268543203,104.95642347862018,115.92954991497406,63.72020640308002
0.2152958141102604,102.36558716302874,115.92954991497406,63.72020640308002
0.2059448841844744,99.69798999858038,115.92954991497406,63.72020640308002
0.1949984991157069,97.03796131833734,115.92954991497406,63.72020640308002
0.1835274472634769,94.20762032517317,115.92954991497406,63.72020640308002
0.1715962621189713,91.23178512780976,115.92954991497406,63.72020640308002
0.1599592202974456,88.13587575366009,115.92954991497406,63.72020640308002
0.149024279470877,84.89060502320126,115.92954991497406,63.72020640308002
0.1402529840031422,81.6750493419568,115.92954991497406,63.72020640308002
0.1342431652654764,78.49921580418571,115.92954991497406,63.72020640308002
0.1315765011589661,75.5326051816583,115.92954991497406,63.72020640308002
0.1330829009934676,72.8472976970923,115.92954991497406,63.72020640308002
0.1393852283016986,70.4879025403302,115.92954991497406,63.72020640308002
0.1512117179023074,68.54816633072465,115.92954991497406,63.72020640308002
0.1686348293219529,67.0008285081325,115.92954991497406,63.72020640308002
0.1922903930361505,65.91238896883095,115.92954991497406,63.72020640308002
0.2212500831248491,65.1264425503719,115.92954991497406,63.72020640308002
0.2558348215386662,64.66147666896228,115.92954991497406,63.72020640308002
0.2949302420156535,64.45509981785695,115.92954991497406,63.72020640308002
0.3383733078289173,64.47058445909583,115.92954991497406,63.72020640308002
0.3841106376106638,64.64014956729501,115.92954991497406,63.72020640308002
0.431539808880959,64.91920633055213,115.92954991497406,63.72020640308002
0.479145391265662,65.30238822522523,115.92954991497406,63.72020640308002
0.5258438612297279,65.74299439090493,115.92954991497406,63.72020640308002
0.5698873239719013,66.21940158674042,115.92954991497406,63.72020640308002
0.610024750373864,66.69919139666297,115.92954991497406,63.72020640308002
0.6455124035142883,67.11445963596799,115.92954991497406,63.72020640308002
0.6750196880809094,67.43150888014424,115.92954991497406,63.72020640308002
0.698476773599823,67.6114717364958,115.92954991497406,67.6114717364958
0.7148512491587086,67.61057441260807,115.92954991497406,67.6114717364958
0.7243185762653576,67.45548032377485,115.92954991497406,67.6114717364958
0.7262271860428929,67.1115067982197,115.92954991497406,67.6114717364958
0.721637485883494,66.68080515869102,115.92954991497406,67.6114717364958
0.7102887811405311,66.15958108815765,115.92954991497406,67.6114717364958
0.6930050118102181,65.55122990970932,115.92954991497406,67.6114717364958
0.669990026212252,64.88101917524551,115.92954991497406,67.6114717364958
0.6426591604276974,64.24716033493631,115.92954991497406,67.6114717364958
0.6114936757003138,63.674952005918186,115.92954991497406,67.6114717364958
0.57728055611468,63.137900941052656,115.92954991497406,67.6114717364958
0.5407819983107689,62.67644253126672,115.92954991497406,67.6114717364958
0.5033036870112012,62.14572894924866,115.92954991497406,67.6114717364958
0.4656577965505127,61.54763857518376,115.92954991497406,67.6114717364958
0.428303480662266,61.14206056168688,115.92954991497406,67.6114717364958
0.3921528236236569,61.34697007012251,115.92954991497406,67.6114717364958
0.3577388029268709,63.12116056649137,115.92954991497406,67.6114717364958
0.325802731301448,66.87475360608889,115.92954991497406,67.6114717364958
0.2967146585741235,72.59722174294933,115.92954991497406,67.6114717364958
0.2711270512552542,79.75730393442382,115.92954991497406,67.6114717364958
0.2487331806898745,87.28655937550089,115.92954991497406,67.6114717364958
0.2300115845672539,94.59709109138096,115.92954991497406,67.6114717364958
0.214831331368394,101.30043596136716,115.92954991497406,67.6114717364958
0.2033957738605779,107.1838855703412,115.92954991497406,67.6114717364958
0.1948176842300717,112.13411132971804,115.92954991497406,67.6114717364958
0.1891069732511347,115.88203485262156,115.92954991497406,67.6114717364958
0.1857721296805417,118.22447053456976,115.92954991497406,67.6114717364958
0.1845284919325665,119.06996228165764,119.06996228165764,67.6114717364958
0.1842190222387414,118.93619113562974,119.06996228165764,67.6114717364958
0.1844247443639897,118.03409882053994,119.06996228165764,67.6114717364958
0.1848263318813944,116.6491534255034,119.06996228165764,67.6114717364958
0.1848140441155278,114.99777922075072,119.06996228165764,67.6114717364958
0.1839128116671486,112.94510764223295,119.06996228165764,67.6114717364958
0.1816170605303038,110.63865853551874,119.06996228165764,67.6114717364958
0.1778134259134879,108.041494078189,119.06996228165764,67.6114717364958
0.1720404765352542,105.20604078948466,119.06996228165764,67.6114717364958
0.1649275056400772,102.21446829771128,119.06996228165764,67.6114717364958
0.1562210358725409,99.10155118889702,119.06996228165764,67.6114717364958
0.1465109103443377,95.90785987814174,119.06996228165764,67.6114717364958
0.1358687150216555,92.68288298350986,119.06996228165764,67.6114717364958
0.1257003355212153,89.33478825447008,119.06996228165764,67.6114717364958
0.1163452394587242,85.89533743955843,119.06996228165764,67.6114717364958
0.1087361558471246,82.54588076479696,119.06996228165764,67.6114717364958
0.1035606763251675,79.31161866560367,119.06996228165764,67.6114717364958
0.102225106273404,76.49965392233098,119.06996228165764,67.6114717364958
0.1055438206139031,74.20834219899217,119.06996228165764,67.6114717364958
0.1138378500255626,72.3733739746079,119.06996228165764,67.6114717364958
0.1280311325894501,71.05584139084849,119.06996228165764,67.6114717364958
0.1480774714876482,69.96395867163946,119.06996228165764,67.6114717364958
0.1746266499832156,69.08900514483807,119.06996228165764,67.6114717364958
0.2069943892987401,68.37298712876225,119.06996228165764,67.6114717364958
0.2455103805825388,67.72875726883944,119.06996228165764,67.6114717364958
0.288452624005119,67.37024440766072,119.06996228165764,67.6114717364958
0.3356696940880633,67.25308351520025,119.06996228165764,67.6114717364958
0.3855189564822355,67.44033294914556,119.06996228165764,67.6114717364958
0.4372767088929098,67.9445786614933,119.06996228165764,67.6114717364958
0.4887617361603116,68.44906321555553,119.06996228165764,67.6114717364958
0.5388686600184561,68.94077978253495,119.06996228165764,67.6114717364958
0.5863775677258057,69.273178831381,119.06996228165764,67.6114717364958
0.6298868233995213,69.37023723543771,119.06996228165764,67.6114717364958
0.6683122396298204,69.42344362342433,119.06996228165764,69.42344362342433
0.7003494999822345,69.3674097457222,119.06996228165764,69.42344362342433
0.7256951469431271,69.2118220012577,119.06996228165764,69.42344362342433
0.7432052052886091,68.9706449238884,119.06996228165764,69.42344362342433
0.7534429724592897,68.61394198460519,119.06996228165764,69.42344362342433
0.7556687927421754,68.14630765579241,119.06996228165764,69.42344362342433
0.7504301348139567,67.61429796581909,119.06996228165764,69.42344362342433
0.7374670149789667,67.01756350020723,119.06996228165764,69.42344362342433
0.7182402148493109,66.42338208963255,119.06996228165764,69.42344362342433
0.6928714871976988,65.85176073190334,119.06996228165764,69.42344362342433
0.662318564020528,65.27587250643447,119.06996228165764,69.42344362342433
0.6271475996112841,64.7232379273974,119.06996228165764,69.42344362342433
0.5888868170103786,64.14479977633565,119.06996228165764,69.42344362342433
0.5482908849028989,63.544593434072254,119.06996228165764,69.42344362342433
0.5062343024439288,62.95717488315604,119.06996228165764,69.42344362342433
0.4636925650896595,62.53646663495012,119.06996228165764,69.42344362342433
0.4217937775279846,63.1119393426786,119.06996228165764,69.42344362342433
0.3814906322160162,65.2979214923396,119.06996228165764,69.42344362342433
0.3433589899268579,69.6533397509972,119.06996228165764,69.42344362342433
0.308363048642621,76.18872918971222,119.06996228165764,69.42344362342433
0.2763641377267511,84.00386072909875,119.06996228165764,69.42344362342433
0.2481033859828594,92.20859029717585,119.06996228165764,69.42344362342433
0.2237082252718915,99.94371684400946,119.06996228165764,69.42344362342433
0.2036198859793246,106.78105639152632,119.06996228165764,69.42344362342433
0.1870508455129831,112.78074639297157,119.06996228165764,69.42344362342433
0.1742415578778162,117.6461665979218,119.06996228165764,69.42344362342433
0.1647140054651444,121.16021281693249,119.06996228165764,69.42344362342433
0.1583553351988422,123.12855209291472,119.06996228165764,69.42344362342433
0.154063238885149,123.7013482484452,123.7013482484452,69.42344362342433
0.1515367548964651,123.14038953339691,123.7013482484452,69.42344362342433
0.1503263972346579,121.94361815802648,123.7013482484452,69.42344362342433
0.1498996030679558,120.34481149759162,123.7013482484452,69.42344362342433
0.1495050920905533,118.38393500775176,123.7013482484452,69.42344362342433
0.1486217648455138,116.13736803059729,123.7013482484452,69.42344362342433
0.1470036215455568,113.58002528136024,123.7013482484452,69.42344362342433
0.144092731913016,110.77485985367376,123.7013482484452,69.42344362342433
0.140389778732577,107.88329947080793,123.7013482484452,69.42344362342433
0.1355350605071196,104.95433548208612,123.7013482484452,69.42344362342433
0.1298210298197771,101.97583721801963,123.7013482484452,69.42344362342433
0.1231875341795494,98.99448241673524,123.7013482484452,69.42344362342433
0.1168563193737055,95.79583003920784,123.7013482484452,69.42344362342433
0.1109843900633343,92.38327730194548,123.7013482484452,69.42344362342433
0.1064650381971979,88.93768672168298,123.7013482484452,69.42344362342433
0.1038199769004559,85.46655539052605,123.7013482484452,69.42344362342433
0.1044451076293227,82.29010085298816,123.7013482484452,69.42344362342433
0.1090396637329234,79.4964902062573,123.7013482484452,69.42344362342433
0.1180786086284775,77.05078508560031,123.7013482484452,69.42344362342433
0.132425504708543,75.07297372511005,123.7013482484452,69.42344362342433
0.1524407232559241,73.41410608756387,123.7013482484452,69.42344362342433
0.1788193797979142,72.12153102875536,123.7013482484452,69.42344362342433
0.2110258739783904,71.15969204947369,123.7013482484452,69.42344362342433
0.2495424159091838,70.51563779629058,123.7013482484452,69.42344362342433
0.2928129941327413,70.13558414653464,123.7013482484452,69.42344362342433
0.3408193299014846,69.9988045190783,123.7013482484452,69.42344362342433
0.3919471672681834,70.12048246380868,123.7013482484452,69.42344362342433
0.4456052776463686,70.47466492046459,123.7013482484452,69.42344362342433
0.4993777437830369,71.07415511039729,123.7013482484452,69.42344362342433
0.5522246748870195,71.90877813793723,123.7013482484452,69.42344362342433
0.6027329321497839,72.70255754315163,123.7013482484452,69.42344362342433
0.6494585449165106,73.4236840551376,123.7013482484452,69.42344362342433
0.6911893986094705,73.90800065002637,123.7013482484452,69.42344362342433
0.7265326311692927,74.06566372239126,123.7013482484452,69.42344362342433
0.7550100457564443,74.07381379203903,123.7013482484452,74.07381379203903
0.7753713193852888,73.85189550096985,123.7013482484452,74.07381379203903
0.7881340068480133,73.50678636538504,123.7013482484452,74.07381379203903
0.7924399618083395,73.04914087714296,123.7013482484452,74.07381379203903
0.7888915991609433,72.42720630510088,123.7013482484452,74.07381379203903
0.7771492782062593,71.66803102415179,123.7013482484452,74.07381379203903
0.7586544801201184,70.91680835506394,123.7013482484452,74.07381379203903
0.7334915148071128,70.1898711240846,123.7013482484452,74.07381379203903
0.7026649662216005,69.45512134557458,123.7013482484452,74.07381379203903
0.6667153737499046,68.76057541439232,123.7013482484452,74.07381379203903
0.627296836735039,68.11174412321661,123.7013482484452,74.07381379203903
0.5851738021002276,67.52832030894282,123.7013482484452,74.07381379203903
0.541139142502231,66.95105374256056,123.7013482484452,74.07381379203903
0.4961996879632502,66.38883301787459,123.7013482484452,74.07381379203903
0.4513610987672712,66.27672708986822,123.7013482484452,74.07381379203903
0.4075588694721629,67.15515266807824,123.7013482484452,74.07381379203903
0.3655713382925072,69.89304037495972,123.7013482484452,74.07381379203903
0.3263408028946043,75.01059615194394,123.7013482484452,74.07381379203903
0.2899969931983553,82.16084455023812,123.7013482484452,74.07381379203903
0.2573522258919488,90.57883566104276,123.7013482484452,74.07381379203903
0.2286477651825279,98.96715660262774,123.7013482484452,74.07381379203903
0.204451501318102,106.6825077995251,123.7013482484452,74.07381379203903
0.1841399129318149,113.3413631798566,123.7013482484452,74.07381379203903
0.1680778046382743,118.77638892515156,123.7013482484452,74.07381379203903
0.1559029265558443,122.94971404145032,123.7013482484452,74.07381379203903
0.1476371303281287,125.6247432125172,123.7013482484452,74.07381379203903
0.1421135820429326,126.84170202098252,126.84170202098252,74.07381379203903
0.1391397251323007,126.64557318929089,126.84170202098252,74.07381379203903
0.1381911517167122,125.5477513551712,126.84170202098252,74.07381379203903
0.1387774958982737,123.78691009427746,126.84170202098252,74.07381379203903
0.1399775841178566,121.68915299499984,126.84170202098252,74.07381379203903
0.1412608492722625,119.4156252774552,126.84170202098252,74.07381379203903
0.1423891551015211,116.85941781923395,126.84170202098252,74.07381379203903
0.1427542270273045,114.20396058084556,126.84170202098252,74.07381379203903
0.1422738064374591,111.44508525483351,126.84170202098252,74.07381379203903
0.1405012478540734,108.66437846253352,126.84170202098252,74.07381379203903
0.1378288281036232,105.8592000183068,126.84170202098252,74.07381379203903
0.1339911145806311,103.08128541461063,126.84170202098252,74.07381379203903
0.1301094667229864,100.08525273152743,126.84170202098252,74.07381379203903
0.1262375030284896,96.87836269964863,126.84170202098252,74.07381379203903
0.1232473802242617,93.62215588325591,126.84170202098252,74.07381379203903
0.1215620465062394,90.28959694237402,126.84170202098252,74.07381379203903
0.1227353915176234,87.14438548616656,126.84170202098252,74.07381379203903
0.1274158924910382,84.24392951718124,126.84170202098252,74.07381379203903
0.1361616005692913,81.65650981063696,126.84170202098252,74.07381379203903
0.1498554922880292,79.49468248293437,126.84170202098252,74.07381379203903
0.1689174110436956,77.61641037555549,126.84170202098252,74.07381379203903
0.1940806573256099,76.09307746480506,126.84170202098252,74.07381379203903
0.2250256091265073,74.90175042618438,126.84170202098252,74.07381379203903
0.2622960746561248,74.0460840621208,126.84170202098252,74.07381379203903
0.3044616729616743,73.49545448644213,126.84170202098252,74.07381379203903
0.3515924683099647,73.24563946426298,126.84170202098252,74.07381379203903
0.4020942926114125,73.22048772535524,126.84170202098252,74.07381379203903
0.4554664723405379,73.40132373761487,126.84170202098252,74.07381379203903
0.5093038125106377,73.67007618995729,126.84170202098252,74.07381379203903
0.5626288756875901,73.98236797144776,126.84170202098252,74.07381379203903
0.6138661907382644,74.3809832740825,126.84170202098252,74.07381379203903
0.6615978727712173,74.81101033068636,126.84170202098252,74.07381379203903
0.7044265421227477,75.24765423029423,126.84170202098252,74.07381379203903
0.7409124451177214,75.66701449188386,126.84170202098252,74.07381379203903
0.7706138982720319,75.97730189495718,126.84170202098252,74.07381379203903
0.7922067826112318,76.1459504493074,126.84170202098252,74.07381379203903
0.8063118754857812,76.176835084219,126.84170202098252,76.176835084219
0.8120490049061134,76.02491328206258,126.84170202098252,76.176835084219
0.8101376691811873,75.78299221227769,126.84170202098252,76.176835084219
0.8002633008326161,75.43452521285253,126.84170202098252,76.176835084219
0.7840512593852886,75.00937890200063,126.84170202098252,76.176835084219
0.7616509379820867,74.52517268958077,126.84170202098252,76.176835084219
0.734069390589076,73.9543601470489,126.84170202098252,76.176835084219
0.7019373044915654,73.31177828022304,126.84170202098252,76.176835084219
0.6666945660268778,72.63050421571776,126.84170202098252,76.176835084219
0.6291386744298965,71.9154819008046,126.84170202098252,76.176835084219
0.589966959587428,71.1850491816567,126.84170202098252,76.176835084219
0.5501392776151565,70.45388172162481,126.84170202098252,76.176835084219
0.5105868707017116,69.82711288648422,126.84170202098252,76.176835084219
0.4721854808398213,69.60174021662166,126.84170202098252,76.176835084219
0.4354228906975385,70.63329571809449,126.84170202098252,76.176835084219
0.4011543591676589,73.50542380762167,126.84170202098252,76.176835084219
0.3693201245204954,78.60926125150993,126.84170202098252,76.176835084219
0.340579039841172,85.63690180518542,126.84170202098252,76.176835084219
0.3152091408140027,93.48840689909171,126.84170202098252,76.176835084219
0.2936373764624785,101.32415847655425,126.84170202098252,76.176835084219
0.2752741725156624,108.45373361752095,126.84170202098252,76.176835084219
0.2604107081013759,114.59226274202724,126.84170202098252,76.176835084219
0.2488281792180392,119.81022753466154,126.84170202098252,76.176835084219
0.2405242584067656,123.76180677238617,126.84170202098252,76.176835084219
0.2346015396443684,126.38298747338902,126.84170202098252,76.176835084219
0.2309182923992098,127.47663011749484,127.47663011749484,76.176835084219
0.2290287193124494,127.29032187522613,127.47663011749484,76.176835084219
0.2285540594646249,126.048420768916,127.47663011749484,76.176835084219
0.2284788826874903,124.25202394486202,127.47663011749484,76.176835084219
0.2283509786663088,122.1411069118874,127.47663011749484,76.176835084219
0.2280702384273263,119.65444246712264,127.47663011749484,76.176835084219
0.2270659568753417,117.01799632378122,127.47663011749484,76.176835084219
0.2251117658932911,114.23519168842653,127.47663011749484,76.176835084219
0.2218099672838681,111.42910686540432,127.47663011749484,76.176835084219
0.2172862534158953,108.5785626820684,127.47663011749484,76.176835084219
0.2112369395522412,105.76293021046828,127.47663011749484,76.176835084219
0.2044821138012998,102.761424138066,127.47663011749484,76.176835084219
0.1969499797775741,99.59630251390426,127.47663011749484,76.176835084219
0.1893227880939477,96.35117359681824,127.47663011749484,76.176835084219
0.1818460742428955,92.98900662340328,127.47663011749484,76.176835084219
0.1759081642779923,89.76318420986763,127.47663011749484,76.176835084219
0.171980226936887,86.70316321371911,127.47663011749484,76.176835084219
0.1707828034814661,83.9949716299058,127.47663011749484,76.176835084219
0.1730598303462109,81.74398787535762,127.47663011749484,76.176835084219
0.1796616002896977,79.8900525559612,127.47663011749484,76.176835084219
0.1913238819662342,78.54065383154179,127.47663011749484,76.176835084219
0.2081645635177223,77.53616515295208,127.47663011749484,76.176835084219
0.2308883409328634,76.90941850776551,127.47663011749484,76.176835084219
0.2585898176292792,76.51597433379055,127.47663011749484,76.176835084219
0.2916446519609716,76.31982205357598,127.47663011749484,76.176835084219
0.3289086057191488,76.30686365719284,127.47663011749484,76.176835084219
0.3702563902869019,76.41607096614887,127.47663011749484,76.176835084219
0.4134372437774342,76.5801682452767,127.47663011749484,76.176835084219
0.4578440877983238,76.75181001943923,127.47663011749484,76.176835084219
0.5018771403085933,76.96564819070471,127.47663011749484,76.176835084219
0.5443878646200456,77.1765528597835,127.47663011749484,76.176835084219
0.5837182617838118,77.39156908025407,127.47663011749484,76.176835084219
0.618565581975294,77.5932330607346,127.47663011749484,76.176835084219
0.6480572336862535,77.7187085540962,127.47663011749484,76.176835084219
0.6708421067264118,77.75146937241968,127.47663011749484,76.176835084219
0.6869970959006059,77.68625051839317,127.47663011749484,76.176835084219
0.6954546394292374,77.49464093043233,127.47663011749484,76.176835084219
0.6966715359849428,77.21959368622757,127.47663011749484,76.176835084219
0.6900453747439537,76.8470879669895,127.47663011749484,76.176835084219
0.6769915887907432,76.40750443542878,127.47663011749484,76.176835084219
0.6573914276291641,75.90672522260908,127.47663011749484,76.176835084219
0.6323510047619155,75.31572632877183,127.47663011749484,76.176835084219
0.6022860980462723,74.64275901353088,127.47663011749484,76.176835084219
0.5689853194124427,74.0157000584525,127.47663011749484,76.176835084219
0.5331749678943346,73.44454048934564,127.47663011749484,76.176835084219
0.4957352215809056,72.8587079513566,127.47663011749484,76.176835084219
0.4576921633810088,72.2929156420386,127.47663011749484,76.176835084219
0.4200359615316834,71.64763776800022,127.47663011749484,76.176835084219
0.3837342514499278,71.09323856754037,127.47663011749484,76.176835084219
0.3494405891783261,71.43492182099574,127.47663011749484,76.176835084219
0.3180992958286726,73.35507028816254,127.47663011749484,76.176835084219
0.2896523639028707,77.5677903142001,127.47663011749484,76.176835084219
0.2648603877399721,84.10432450177814,127.47663011749484,76.176835084219
0.2437844763141374,91.9940230448708,127.47663011749484,76.176835084219
0.2268918657981048,100.27846177337312,127.47663011749484,76.176835084219
0.2134464977458067,107.97002145516804,127.47663011749484,76.176835084219
0.2036912316329096,114.6148751216385,127.47663011749484,76.176835084219
0.1972433642864322,120.40895713623928,127.47663011749484,76.176835084219
0.1940168694845039,125.108951454466,127.47663011749484,76.176835084219
0.1929047822751081,128.48618526912827,127.47663011749484,76.176835084219
0.1936478307352519,130.41247941994274,127.47663011749484,76.176835084219
0.1958433189535859,130.8517470693904,130.8517470693904,76.176835084219
0.1989872040056096,130.0080734771432,130.8517470693904,76.176835084219
0.202305396075186,128.527733320782,130.8517470693904,76.176835084219
0.2053057670982883,126.57998477024957,130.8517470693904,76.176835084219
0.2076704620779214,124.32500093272034,130.8517470693904,76.176835084219
0.2088455863942179,121.92221420332577,130.8517470693904,76.176835084219
0.2087541824238764,119.35806927880252,130.8517470693904,76.176835084219
0.2069605533359274,116.77485260417352,130.8517470693904,76.176835084219
0.2035758453377149,114.21288681306709,130.8517470693904,76.176835084219
0.1983159226646291,111.76100147733284,130.8517470693904,76.176835084219
0.1920330021159919,109.19607038156413,130.8517470693904,76.176835084219
0.1846639122199814,106.55933564204906,130.8517470693904,76.176835084219
0.1768302624658521,103.72646314211008,130.8517470693904,76.176835084219
0.1687861844546574,100.6496234577433,130.8517470693904,76.176835084219
0.1619830456720181,97.45994641922483,130.8517470693904,76.176835084219
0.1568867790823203,94.1719812162994,130.8517470693904,76.176835084219
0.1541973715600319,91.08805132974854,130.8517470693904,76.176835084219
0.1546717510979079,88.28218587992167,130.8517470693904,76.176835084219
0.1591515667187749,85.84386814432665,130.8517470693904,76.176835084219
0.1683730956873747,83.89445417106586,130.8517470693904,76.176835084219
0.1826764499335847,82.27647390745032,130.8517470693904,76.176835084219
0.2027876603580667,81.07145855715738,130.8517470693904,76.176835084219
0.2280199359367319,80.12060859544714,130.8517470693904,76.176835084219
0.2588460139115928,79.41545345062936,130.8517470693904,76.176835084219
0.2943220958718724,78.97234198307383,130.8517470693904,76.176835084219
0.3344612437938392,78.74729574758354,130.8517470693904,76.176835084219
0.3772915159604323,78.72279190207708,130.8517470693904,76.176835084219
0.4223741754524938,78.87614449425854,130.8517470693904,76.176835084219
0.4681375614394288,79.17001954090505,130.8517470693904,76.176835084219
0.5136166813284841,79.58069335741479,130.8517470693904,76.176835084219
0.5568479978812619,79.96982592813418,130.8517470693904,76.176835084219
0.5966176313577495,80.29812278180678,130.8517470693904,76.176835084219
0.6322449609726593,80.563937173497,130.8517470693904,76.176835084219
0.6623719895270369,80.70476043146688,130.8517470693904,76.176835084219
0.6866029744823787,80.8028779018606,130.8517470693904,76.176835084219
0.7038757579250168,80.8288387316793,130.8517470693904,80.8288387316793
0.7144285935980947,80.71566442985299,130.8517470693904,80.8288387316793
0.7175066546703718,80.45988901610917,130.8517470693904,80.8288387316793
0.7141223816096505,80.08386737140674,130.8517470693904,80.8288387316793
0.7039675106870272,79.56776577568684,130.8517470693904,80.8288387316793
0.6878741311028748,78.99267651808836,130.8517470693904,80.8288387316793
0.6660015838787245,78.36175109577081,130.8517470693904,80.8288387316793
0.6397714908595424,77.70429925547344,130.8517470693904,80.8288387316793
0.6096404759003072,77.04698842223783,130.8517470693904,80.8288387316793
0.5763675257737799,76.25546489068856,130.8517470693904,80.8288387316793
0.5406976210964268,75.33948200004416,130.8517470693904,80.8288387316793
0.5038505220890037,74.37763251019787,130.8517470693904,80.8288387316793
0.466610746723521,73.49972522934672,130.8517470693904,80.8288387316793
0.4294494466705973,73.37719760956307,130.8517470693904,80.8288387316793
0.3932392538456922,74.58172177911871,130.8517470693904,80.8288387316793
0.358372226728289,77.8787785494486,130.8517470693904,80.8288387316793
0.3255547681124767,83.6087560557929,130.8517470693904,80.8288387316793
0.2951779408588535,91.18519224589194,130.8517470693904,80.8288387316793
0.2678350883195436,99.78527024803878,130.8517470693904,80.8288387316793
0.2432326893987207,108.21808823901596,130.8517470693904,80.8288387316793
0.221821214615462,115.74280253390494,130.8517470693904,80.8288387316793
0.2035415414339894,122.268882325197,130.8517470693904,80.8288387316793
0.1885893945531398,127.5662687419733,130.8517470693904,80.8288387316793
0.176174654107591,131.61577978783052,130.8517470693904,80.8288387316793
0.1663317440320598,134.2247367832398,130.8517470693904,80.8288387316793
0.1586754241149449,135.43540700469833,135.43540700469833,80.8288387316793
0.152972862820297,135.3075753055972,135.43540700469833,80.8288387316793
0.1481754097852842,134.43643417335068,135.43540700469833,80.8288387316793
0.1439357672907671,133.00619528493826,135.43540700469833,80.8288387316793
0.1400445053383987,131.21791790897976,135.43540700469833,80.8288387316793
0.135976888050189,129.20790269561454,135.43540700469833,80.8288387316793
0.131370134374584,126.82555165749348,135.43540700469833,80.8288387316793
0.1258128583922349,124.19801849292344,135.43540700469833,80.8288387316793
0.1193012299576733,121.41029055086514,135.43540700469833,80.8288387316793
0.1114742444728058,118.50762730333923,135.43540700469833,80.8288387316793
0.1030542252842454,115.57212414656598,135.43540700469833,80.8288387316793
0.0938896303306997,112.66775229439187,135.43540700469833,80.8288387316793
0.0846465972669359,109.66146455877904,135.43540700469833,80.8288387316793
0.0754934387134211,106.60118011512289,135.43540700469833,80.8288387316793
0.0678932659101246,103.39656583761258,135.43540700469833,80.8288387316793
0.0622727108074048,100.03124511033909,135.43540700469833,80.8288387316793
0.0595161132914142,96.79605827252108,135.43540700469833,80.8288387316793
0.0603763116266415,93.69819100619216,135.43540700469833,80.8288387316793
0.0660014388769108,90.96854384778138,135.43540700469833,80.8288387316793
0.0772069332313719,88.71587782897817,135.43540700469833,80.8288387316793
0.0943967951842353,86.8407859992253,135.43540700469833,80.8288387316793
0.1184346326711397,85.46021876227861,135.43540700469833,80.8288387316793
0.1485898847566827,84.36558840415651,135.43540700469833,80.8288387316793
0.1854308252951574,83.57922131726886,135.43540700469833,80.8288387316793
0.2280640584494919,83.08211819113704,135.43540700469833,80.8288387316793
0.2765038313069412,82.83187864238369,135.43540700469833,80.8288387316793
0.3286312397568282,82.75397247406688,135.43540700469833,80.8288387316793
0.3840116402125354,82.81223908185244,135.43540700469833,80.8288387316793
0.4407563393623269,82.99467610600114,135.43540700469833,80.8288387316793
0.4978288435144731,83.25655085124531,135.43540700469833,80.8288387316793
0.552995730373822,83.53776581612978,135.43540700469833,80.8288387316793
0.6048857471361783,83.80158966525147,135.43540700469833,80.8288387316793
0.6524339095915596,84.0166684446528,135.43540700469833,80.8288387316793
0.6940738470366351,84.13989654653017,135.43540700469833,80.8288387316793
0.7290498965469582,84.20089786164036,135.43540700469833,80.8288387316793
0.7560288671760966,84.16764526040501,135.43540700469833,80.8288387316793
0.7751461413013435,84.00312241543512,135.43540700469833,80.8288387316793
0.785371096703024,83.69158666691787,135.43540700469833,80.8288387316793
0.7877202255834289,83.27510667454182,135.43540700469833,80.8288387316793
0.7816870388759559,82.7371690238683,135.43540700469833,80.8288387316793
0.7681909682932939,82.10226350204326,135.43540700469833,80.8288387316793
0.7472757415555862,81.37457873429491,135.43540700469833,80.8288387316793
0.7206384344673858,80.69667751556187,135.43540700469833,80.8288387316793
0.6887134874446914,80.09173848977035,135.43540700469833,80.8288387316793
0.6525164797181331,79.487777694223,135.43540700469833,80.8288387316793
0.6128781628660823,78.93082036393254,135.43540700469833,80.8288387316793
0.5712267636865452,78.29081331300786,135.43540700469833,80.8288387316793
0.5284881900905117,77.56147745340232,135.43540700469833,80.8288387316793
0.4853252678286177,77.16992248915119,135.43540700469833,80.8288387316793
0.4427734668879338,77.6125433956866,135.43540700469833,80.8288387316793
0.4016426023209607,79.84271651312591,135.43540700469833,80.8288387316793
0.3628352628068675,84.36130070080618,135.43540700469833,80.8288387316793
0.326654081562451,91.02604124007792,135.43540700469833,80.8288387316793
0.293919960667776,99.1918250635061,135.43540700469833,80.8288387316793
0.2643365674648683,107.55921848822656,135.43540700469833,80.8288387316793
0.2384680665557766,115.4387444059294,135.43540700469833,80.8288387316793
0.2162179628002385,122.40592540654592,135.43540700469833,80.8288387316793
0.1978526559825248,128.20781220464758,135.43540700469833,80.8288387316793
0.1823978186801971,132.81046441302885,135.43540700469833,80.8288387316793
0.1699039605264789,135.91524131160054,135.43540700469833,80.8288387316793
0.1599556008782532,137.58557242051893,135.43540700469833,80.8288387316793
0.1522775071823295,137.83093122981938,137.83093122981938,80.8288387316793
0.1458953270767995,137.2594940626982,137.83093122981938,80.8288387316793
0.1404374781306187,136.0881596946655,137.83093122981938,80.8288387316793
0.1355702987444959,134.55332618921489,137.83093122981938,80.8288387316793
0.1307613229563024,132.81047513807482,137.83093122981938,80.8288387316793
0.1255293300351483,130.70585915779003,137.83093122981938,80.8288387316793
0.1194103408552312,128.38867176001736,137.83093122981938,80.8288387316793
0.1124523245847376,125.87325560406885,137.83093122981938,80.8288387316793
0.1042360069657033,123.2101668095035,137.83093122981938,80.8288387316793
0.0954832186652176,120.41704369614162,137.83093122981938,80.8288387316793
0.0860212564117857,117.53542503338682,137.83093122981938,80.8288387316793
0.0764908947636168,114.4727216590007,137.83093122981938,80.8288387316793
0.0670429480213565,111.25037145081996,137.83093122981938,80.8288387316793
0.0592384994404914,107.8774934253497,137.83093122981938,80.8288387316793
0.0534961917698655,104.34992863106818,137.83093122981938,80.8288387316793
0.0507191316373216,100.94218542318671,137.83093122981938,80.8288387316793
0.0516842317834528,97.68369354296424,137.83093122981938,80.8288387316793
0.0575115137473785,94.75255905645928,137.83093122981938,80.8288387316793
0.0690321536103043,92.26077234959456,137.83093122981938,80.8288387316793
0.0868148470117392,90.16781083707096,137.83093122981938,80.8288387316793
0.1117423455691015,88.5847297350244,137.83093122981938,80.8288387316793
0.1433662878647656,87.32851414171817,137.83093122981938,80.8288387316793
0.1823418729505047,86.43743995608256,137.83093122981938,80.8288387316793
0.2277933505507184,85.79721948530124,137.83093122981938,80.8288387316793
0.279852160414866,85.37164871626132,137.83093122981938,80.8288387316793
0.3364617477552709,85.08111962934069,137.83093122981938,80.8288387316793
0.3972505704546941,84.86646579947394,137.83093122981938,80.8288387316793
0.4603048187603435,84.81791105950266,137.83093122981938,80.8288387316793
0.5246442970952478,84.88698353869299,137.83093122981938,80.8288387316793
0.5878063560760395,85.0418898431293,137.83093122981938,80.8288387316793
0.6484241084836382,85.274319691452,137.83093122981938,80.8288387316793
0.7052652130414804,85.50502091627848,137.83093122981938,80.8288387316793
0.7566868001228994,85.70994110354162,137.83093122981938,80.8288387316793
0.8017757804582524,85.87203658204092,137.83093122981938,80.8288387316793
0.8390923468723221,85.95320397056805,137.83093122981938,80.8288387316793
0.8684725253227874,85.9248999078161,137.83093122981938,80.8288387316793
0.8887463595255027,85.7565635924597,137.83093122981938,80.8288387316793
0.9007004358749552,85.49898266106197,137.83093122981938,80.8288387316793
0.9036361896331296,85.13018903538563,137.83093122981938,80.8288387316793
0.8983534631010516,84.65815316953017,137.83093122981938,80.8288387316793
0.8847031753048873,84.08401844446053,137.83093122981938,80.8288387316793
0.8642477922904872,83.542793492002,137.83093122981938,80.8288387316793
0.837255525249376,83.05025411431126,137.83093122981938,80.8288387316793
0.8047850894765063,82.53372189128572,137.83093122981938,80.8288387316793
0.7675302116525228,82.03266768878302,137.83093122981938,80.8288387316793
0.7271426550262913,81.4841849848339,137.83093122981938,80.8288387316793
0.684497649891688,80.8846325341653,137.83093122981938,80.8288387316793
0.640343372693036,80.40108845541346,137.83093122981938,80.8288387316793
0.5957516270204524,80.41847275445906,137.83093122981938,80.8288387316793
0.5516281636940366,81.93495852669439,137.83093122981938,80.8288387316793
0.5089277982453414,85.46166051724278,137.83093122981938,80.8288387316793
0.4682591795880164,91.17218829051902,137.83093122981938,80.8288387316793
0.4305330990679349,98.6112485748033,137.83093122981938,80.8288387316793
0.3956657769108496,106.62486670019086,137.83093122981938,80.8288387316793
0.3643828348073293,114.4101162627114,137.83093122981938,80.8288387316793
0.3366771100833886,121.37260333882064,137.83093122981938,80.8288387316793
0.3129800879910928,127.25926408255448,137.83093122981938,80.8288387316793
0.2924796272577069,132.14394969069645,137.83093122981938,80.8288387316793
0.2753695910950409,135.7242970657492,137.83093122981938,80.8288387316793
0.2612314045098083,137.9922457722822,137.83093122981938,80.8288387316793
0.2499244010636735,138.7836101792722,138.7836101792722,80.8288387316793
0.2403327457996832,138.54323836942382,138.7836101792722,80.8288387316793
0.2321527663506003,137.44521854217578,138.7836101792722,80.8288387316793
0.2251209714130623,135.81262305122695,138.7836101792722,80.8288387316793
0.2187173199821891,133.89532652256793,138.7836101792722,80.8288387316793
0.2124933553405715,131.66999675660625,138.7836101792722,80.8288387316793
0.2060183803323456,129.32958470159562,138.7836101792722,80.8288387316793
0.1991212554237533,126.82146843573622,138.7836101792722,80.8288387316793
0.1913889045465585,124.25522187669424,138.7836101792722,80.8288387316793
0.1833359074092262,121.55154836038416,138.7836101792722,80.8288387316793
0.1747117825189202,118.75888230584177,138.7836101792722,80.8288387316793
0.1659007815882188,115.83589304505132,138.7836101792722,80.8288387316793
0.1569250575837259,112.78872912418429,138.7836101792722,80.8288387316793
0.1489243110894761,109.64186992832998,138.7836101792722,80.8288387316793
0.1421248386483571,106.39196688027003,138.7836101792722,80.8288387316793
0.1371750882466623,103.2432495770701,138.7836101792722,80.8288387316793
0.1345918433645875,100.2219849352864,138.7836101792722,80.8288387316793
0.1354843109618118,97.5001575744076,138.7836101792722,80.8288387316793
0.1404538540133757,95.167631466674,138.7836101792722,80.8288387316793
0.1497045615888589,93.19334831146884,138.7836101792722,80.8288387316793
0.163935583809955,91.67485407720235,138.7836101792722,80.8288387316793
0.1829525303870109,90.43777139207268,138.7836101792722,80.8288387316793
0.2072190985984879,89.51519960229696,138.7836101792722,80.8288387316793
0.2361534404268705,88.86373207167419,138.7836101792722,80.8288387316793
0.2699377159697877,88.45331175491995,138.7836101792722,80.8288387316793
0.3070296265548337,88.12223694036896,138.7836101792722,80.8288387316793
0.3472322977586907,87.8260576984735,138.7836101792722,80.8288387316793
0.3891985009146428,87.60617507537125,138.7836101792722,80.8288387316793
0.4322526812827051,87.39472125331167,138.7836101792722,80.8288387316793
0.4745714026282113,87.23631963209736,138.7836101792722,80.8288387316793
0.5151944137283779,87.1064341499691,138.7836101792722,80.8288387316793
0.5532819833101077,86.98598315618466,138.7836101792722,80.8288387316793
0.5876570348889686,86.86841426657418,138.7836101792722,80.8288387316793
0.6175918007243726,86.70083300933472,138.7836101792722,80.8288387316793
0.6420601310882627,86.46757228026738,138.7836101792722,80.8288387316793
0.6610447874019295,86.17309388974378,138.7836101792722,80.8288387316793
0.6737002924143856,85.79377086919385,138.7836101792722,80.8288387316793
0.6807506876438464,85.36242684134221,138.7836101792722,80.8288387316793
0.6817362537357239,84.86949705113493,138.7836101792722,80.8288387316793
0.6771931576104151,84.31048216375285,138.7836101792722,80.8288387316793
0.6670787666973339,83.6875918721159,138.7836101792722,80.8288387316793
0.6526606158718888,83.03126536016461,138.7836101792722,80.8288387316793
0.634174233543195,82.34419293666244,138.7836101792722,80.8288387316793
0.6121998767136799,81.64722911771217,138.7836101792722,80.8288387316793
0.5872854825771543,80.95270186526301,138.7836101792722,80.8288387316793
0.5604622259516274,80.25758333213702,138.7836101792722,80.8288387316793
0.532322486878869,79.5745712569921,138.7836101792722,80.8288387316793
0.5032183783207734,78.93369184618227,138.7836101792722,80.8288387316793
0.4738386901412881,78.62977648611793,138.7836101792722,80.8288387316793
0.4448110691458157,79.64532260294884,138.7836101792722,80.8288387316793
0.4167190596526751,82.59763939093799,138.7836101792722,80.8288387316793
0.3898354156788149,87.84952263317822,138.7836101792722,80.8288387316793
0.3647289138715339,95.13117146909798,138.7836101792722,80.8288387316793
0.3412213044209248,103.32738932170038,138.7836101792722,80.8288387316793
0.3197220467017074,111.53505426897352,138.7836101792722,80.8288387316793
0.3003698352270357,119.03460113861372,138.7836101792722,80.8288387316793
0.2833885969549866,125.51629616507552,138.7836101792722,80.8288387316793
0.2681104520728194,131.06970751330965,138.7836101792722,80.8288387316793
0.2546521392837856,135.38992072500395,138.7836101792722,80.8288387316793
0.2429217000775727,138.34381518177966,138.7836101792722,80.8288387316793
0.232799052088158,139.75468298514392,138.7836101792722,80.8288387316793
0.2235891814787506,139.9066275350072,139.9066275350072,80.8288387316793
0.2151316164880125,139.0117189364323,139.9066275350072,80.8288387316793
0.2072673304322862,137.47114263200496,139.9066275350072,80.8288387316793
0.1996877933050335,135.51877312235092,139.9066275350072,80.8288387316793
0.191936473095338,133.20901872216774,139.9066275350072,80.8288387316793
0.1837383873053865,130.7356740565047,139.9066275350072,80.8288387316793
0.1750022469294558,128.11214793985573,139.9066275350072,80.8288387316793
0.1654194667425226,125.476380618626,139.9066275350072,80.8288387316793
0.1554337255007213,122.7798505348848,139.9066275350072,80.8288387316793
0.1448764181070197,120.10891406484896,139.9066275350072,80.8288387316793
0.1340114752690185,117.2805077220571,139.9066275350072,80.8288387316793
0.122880264120802,114.31776394265886,139.9066275350072,80.8288387316793
0.1126302549889348,111.1290587753489,139.9066275350072,80.8288387316793
0.1034694905925298,107.67347738423229,139.9066275350072,80.8288387316793
0.0960075582976817,104.21968169888596,139.9066275350072,80.8288387316793
0.0907498959412375,100.77027216853593,139.9066275350072,80.8288387316793
0.088811069074222,97.64440151033084,139.9066275350072,80.8288387316793
0.090774772213892,94.94994454846216,139.9066275350072,80.8288387316793
0.0969455606825176,92.6171078209063,139.9066275350072,80.8288387316793
0.1080238312841566,90.78369319763478,139.9066275350072,80.8288387316793
0.1242294030296694,89.32654335500132,139.9066275350072,80.8288387316793
0.1460967110873101,88.29694323134231,139.9066275350072,80.8288387316793
0.1730315453888888,87.598155133131,139.9066275350072,80.8288387316793
0.2053714783171613,87.22123547117538,139.9066275350072,80.8288387316793
0.2416386358845215,87.01236522891612,139.9066275350072,80.8288387316793
0.2817311952313224,86.92581217567738,139.9066275350072,80.8288387316793
0.3242422475722802,86.99953438583188,139.9066275350072,80.8288387316793
0.3685695415178244,87.16776248572876,139.9066275350072,80.8288387316793
0.4126139865845006,87.4078315500191,139.9066275350072,80.8288387316793
0.4554163834228699,87.68845069135187,139.9066275350072,80.8288387316793
0.4959239176563003,87.94201119579061,139.9066275350072,80.8288387316793
0.532864165802096,88.13431952766055,139.9066275350072,80.8288387316793
0.5653612444883933,88.22827083570502,139.9066275350072,80.8288387316793
0.5922596070950883,88.18012461550916,139.9066275350072,80.8288387316793
0.6133410378623747,88.03032682310327,139.9066275350072,80.8288387316793
0.6276196060666177,87.74610441603795,139.9066275350072,80.8288387316793
0.6357661467749843,87.43302571679556,139.9066275350072,80.8288387316793
0.6371729850796035,87.09260802868516,139.9066275350072,80.8288387316793
0.6324765605057521,86.64051179140549,139.9066275350072,80.8288387316793
0.6215387799501464,86.0970503832474,139.9066275350072,80.8288387316793
0.6057174758032916,85.49637077854024,139.9066275350072,80.8288387316793
0.5852243707461262,84.82996585802452,139.9066275350072,80.8288387316793
0.560876680623879,84.12908451007169,139.9066275350072,80.8288387316793
0.5332541144832835,83.40261202181989,139.9066275350072,80.8288387316793
0.5037424745062997,82.67819370579042,139.9066275350072,80.8288387316793
0.473054191271047,81.97212404948016,139.9066275350072,80.8288387316793
0.4416598027997675,81.2549298231108,139.9066275350072,80.8288387316793
0.4104297753812392,80.74355738927655,139.9066275350072,80.8288387316793
0.3800221330272252,81.3265546688024,139.9066275350072,80.8288387316793
0.3511659313309542,83.64844565459644,139.9066275350072,80.8288387316793
0.3242993075035867,88.25811444389609,139.9066275350072,80.8288387316793
0.3001079363004085,95.10357528572204,139.9066275350072,80.8288387316793
0.2784266617431289,103.1832826409219,139.9066275350072,80.8288387316793
0.2597860842765742,111.50565594328202,139.9066275350072,80.8288387316793
0.2442190255518842,119.1290710740778,139.9066275350072,80.8288387316793
0.232016658850086,125.57649629649458,139.9066275350072,80.8288387316793
0.2224697458366633,130.9463089049015,139.9066275350072,80.8288387316793
0.2157049711526434,135.06735445326052,139.9066275350072,80.8288387316793
0.2114000692596986,137.9270814481781,139.9066275350072,80.8288387316793
0.2094084069780418,139.43225740812233,139.9066275350072,80.8288387316793
0.2087063294553395,139.77368571476646,139.77368571476646,80.8288387316793
0.209020196786611,139.08626450081863,139.77368571476646,80.8288387316793
0.2100961543078559,137.7544488018282,139.77368571476646,80.8288387316793
0.2114578851830165,135.94402456762617,139.77368571476646,80.8288387316793
0.2125971575669857,133.7792681177695,139.77368571476646,80.8288387316793
0.2131061457389005,131.43153083185507,139.77368571476646,80.8288387316793
0.2127230347258452,128.86446892855432,139.77368571476646,80.8288387316793
0.2110236897546685,126.2145837678989,139.77368571476646,80.8288387316793
0.208382510921928,123.43655303222305,139.77368571476646,80.8288387316793
0.2045038769737943,120.60124204754908,139.77368571476646,80.8288387316793
0.1996530979779778,117.62015710761366,139.77368571476646,80.8288387316793
0.1937744772799531,114.51816175101138,139.77368571476646,80.8288387316793
0.1879447243764626,111.19887279116654,139.77368571476646,80.8288387316793
0.1823037842695661,107.6449663516602,139.77368571476646,80.8288387316793
0.1775444360757284,104.11103597477798,139.77368571476646,80.8288387316793
0.1741175122921735,100.60584389144674,139.77368571476646,80.8288387316793
0.173366076946807,97.41028080672768,139.77368571476646,80.8288387316793
0.1758864233898991,94.6289331378684,139.77368571476646,80.8288387316793
0.182046382989332,92.14628214997742,139.77368571476646,80.8288387316793
0.1926216869462388,90.0893454500715,139.77368571476646,80.8288387316793
0.2079099184211504,88.47228706161347,139.77368571476646,80.8288387316793
0.2285148260287857,87.34138802076514,139.77368571476646,80.8288387316793
0.2541103501176427,86.69657622633994,139.77368571476646,80.8288387316793
0.2851264924779292,86.56668795152619,139.77368571476646,80.8288387316793
0.3202429108799632,86.5667002254536,139.77368571476646,80.8288387316793
0.3595051807317899,86.67553702995632,139.77368571476646,80.8288387316793
0.4015595161562683,86.85217381965406,139.77368571476646,80.8288387316793
0.4459416763856247,87.01720036192428,139.77368571476646,80.8288387316793
0.4906053372830635,87.32861728205614,139.77368571476646,80.8288387316793
0.5346971366439364,87.74491100215137,139.77368571476646,80.8288387316793
0.5769973647712828,88.14841730472955,139.77368571476646,80.8288387316793
0.6162979436984765,88.54405177143865,139.77368571476646,80.8288387316793
0.6514434721064808,88.80481694672693,139.77368571476646,80.8288387316793
0.681244345634828,88.8855021675057,139.77368571476646,88.8855021675057
0.7053114828985755,88.82447925050823,139.77368571476646,88.8855021675057
0.7225464307748112,88.56448616235683,139.77368571476646,88.8855021675057
0.7334306028472057,88.21778037859843,139.77368571476646,88.8855021675057
0.7372231168423008,87.77195093607787,139.77368571476646,88.8855021675057
0.7343806041249272,87.17807820720958,139.77368571476646,88.8855021675057
0.7246121377524344,86.45292903329822,139.77368571476646,88.8855021675057
0.709262018854309,85.7561297587735,139.77368571476646,88.8855021675057
0.6883968050652671,85.09936926420961,139.77368571476646,88.8855021675057
0.6628277139942278,84.51222252358076,139.77368571476646,88.8855021675057
0.6330402157917384,84.04998433547709,139.77368571476646,88.8855021675057
0.6003958870514298,83.56527523894502,139.77368571476646,88.8855021675057
0.5655425557017607,83.07297600964762,139.77368571476646,88.8855021675057
0.5291908099128976,82.50959252442445,139.77368571476646,88.8855021675057
0.4921878436909772,82.05032429362483,139.77368571476646,88.8855021675057
0.4555350365572453,82.48257280585166,139.77368571476646,88.8855021675057
0.4200479321034603,84.48925884110697,139.77368571476646,88.8855021675057
0.3862471575600062,88.74076129919855,139.77368571476646,88.8855021675057
0.3549715269931279,95.288092202362,139.77368571476646,88.8855021675057
0.326111515623328,103.22288955121044,139.77368571476646,88.8855021675057
0.3003179268246082,111.60200076448224,139.77368571476646,88.8855021675057
0.2778139312933114,119.46896228941634,139.77368571476646,88.8855021675057
0.2590015129871422,126.30248814778318,139.77368571476646,88.8855021675057
0.2432194984495407,132.1175862493455,139.77368571476646,88.8855021675057
0.2307216857634136,136.64913662329914,139.77368571476646,88.8855021675057
0.2211534009209473,139.79156176317375,139.77368571476646,88.8855021675057
0.2144557626946366,141.36302180394824,139.77368571476646,88.8855021675057
0.2096301515326167,141.571671523553,141.571671523553,88.8855021675057
0.2064523013073764,140.62825530879098,141.571671523553,88.8855021675057
0.2045549596921051,139.041458445464,141.571671523553,88.8855021675057
0.2034893620487093,137.03390691110042,141.571671523553,88.8855021675057
0.2025633117989606,134.81408826423575,141.571671523553,88.8855021675057
0.2013361978414146,132.5225724470629,141.571671523553,88.8855021675057
0.1995867048374188,130.0383062156733,141.571671523553,88.8855021675057
0.1968257901009704,127.49777171655832,141.571671523553,88.8855021675057
0.1935262098761652,124.77689076002532,141.571671523553,88.8855021675057
0.1893753092824718,121.9132143576091,141.571671523553,88.8855021675057
0.1845694875945077,118.94207841094332,141.571671523553,88.8855021675057
0.1790608665145772,115.8599817237355,141.571671523553,88.8855021675057
0.1739057344224704,112.645057857461,141.571671523553,88.8855021675057
0.1692262641606818,109.30470660951808,141.571671523553,88.8855021675057
0.1657023358518056,105.93799175052833,141.571671523553,88.8855021675057
0.163767944945705,102.55303067043351,141.571671523553,88.8855021675057
0.1646012349185448,99.45177819435494,141.571671523553,88.8855021675057
0.1687674821540329,96.69809569899328,141.571671523553,88.8855021675057
0.1765753613727295,94.324860294972,141.571671523553,88.8855021675057
0.1887297511456737,92.4570211428906,141.571671523553,88.8855021675057
0.205529576183029,90.93934974160194,141.571671523553,88.8855021675057
0.2275202794448808,89.83929821713738,141.571671523553,88.8855021675057
0.2542480760792837,89.07944136737889,141.571671523553,88.8855021675057
0.286093684686922,88.65244940480304,141.571671523553,88.8855021675057
0.3217177766974766,88.49217257389026,141.571671523553,88.8855021675057
0.3610973263423392,88.56898836857047,141.571671523553,88.8855021675057
0.4029333111980525,88.83724010981382,141.571671523553,88.8855021675057
0.4467204046970429,89.25642584403778,141.571671523553,88.8855021675057
0.4903897282049492,89.7000174770002,141.571671523553,88.8855021675057
0.5330743837442377,90.1177115981605,141.571671523553,88.8855021675057
0.573646899571822,90.5105242136506,141.571671523553,88.8855021675057
0.6108927502154833,90.81248619451586,141.571671523553,88.8855021675057
0.643778395706919,91.00993840496908,141.571671523553,88.8855021675057
0.6711483696462975,91.06182178738528,141.571671523553,91.06182178738528
0.692593721260369,90.98889527564366,141.571671523553,91.06182178738528
0.707067336459404,90.76300909327674,141.571671523553,91.06182178738528
0.7150681102395947,90.42987501963096,141.571671523553,91.06182178738528
0.7158822323668446,89.98208253810684,141.571671523553,91.06182178738528
0.7100317853926404,89.37595794438091,141.571671523553,91.06182178738528
0.697255288691566,88.61431740127306,141.571671523553,91.06182178738528
0.6788775065851571,87.87428106797509,141.571671523553,91.06182178738528
0.6549993997453913,87.16308469503743,141.571671523553,91.06182178738528
0.6264949197200694,86.49344582500542,141.571671523553,91.06182178738528
0.593871485002962,85.92065373034329,141.571671523553,91.06182178738528
0.5586527878574445,85.31269726590259,141.571671523553,91.06182178738528
0.5215350550657022,84.69142473381729,141.571671523553,91.06182178738528
0.4831824800461407,84.03481473559293,141.571671523553,91.06182178738528
0.4445116060264088,83.53639118856927,141.571671523553,91.06182178738528
0.4063932881037951,83.99150634805432,141.571671523553,91.06182178738528
0.3696583886459273,86.07468729950446,141.571671523553,91.06182178738528
0.3349420508180172,90.43459784803996,141.571671523553,91.06182178738528
0.3030701600238631,97.09260172454012,141.571671523553,91.06182178738528
0.2740341708861745,105.12335482039671,141.571671523553,91.06182178738528
0.2485207604429772,113.60067632584054,141.571671523553,91.06182178738528
0.2266585165150842,121.59236927963424,141.571671523553,91.06182178738528
0.2088879012151368,128.55845219852478,141.571671523553,91.06182178738528
0.1945143433140911,134.4620654694956,141.571671523553,91.06182178738528
0.1837852459998789,138.98815624203297,141.571671523553,91.06182178738528
0.1763027734005745,142.0866899651852,141.571671523553,91.06182178738528
0.1719923484148622,143.53764447805452,141.571671523553,91.06182178738528
0.1696757240266091,143.7103823402583,143.7103823402583,91.06182178738528
0.1690887816813419,142.82036671654384,143.7103823402583,91.06182178738528
0.1697725956575055,141.3381734688019,143.7103823402583,91.06182178738528
0.1711950862778815,139.52869753797228,143.7103823402583,91.06182178738528
0.172636892561853,137.49775421519954,143.7103823402583,91.06182178738528
0.1735795208350496,135.40440768672033,143.7103823402583,91.06182178738528
0.1736387695562797,133.13543714664803,143.7103823402583,91.06182178738528
0.1722529524107191,130.81179945535683,143.7103823402583,91.06182178738528
0.1697343291626719,128.36159042814694,143.7103823402583,91.06182178738528
0.1656629831976312,125.82192642173833,143.7103823402583,91.06182178738528
0.1603987164818141,123.18728955480404,143.7103823402583,91.06182178738528
0.1538008964313896,120.4636585201284,143.7103823402583,91.06182178738528
0.1471238678712618,117.49741585381418,143.7103823402583,91.06182178738528
0.14049822793656,114.27631761886713,143.7103823402583,91.06182178738528
0.1348459860186304,110.9347833588842,143.7103823402583,91.06182178738528
0.1306821997019187,107.48174733776364,143.7103823402583,91.06182178738528
0.1295668921233098,104.2682506937237,143.7103823402583,91.06182178738528
0.1322192413011856,101.37269522558998,143.7103823402583,91.06182178738528
0.1391559169368156,98.77016558083774,143.7103823402583,91.06182178738528
0.1513019180320025,96.60177298222511,143.7103823402583,91.06182178738528
0.1689914018771848,94.76078071080052,143.7103823402583,91.06182178738528
0.1929644509674293,93.3132944489968,143.7103823402583,91.06182178738528
0.2227916351562991,92.21148413484214,143.7103823402583,91.06182178738528
0.2589872058508961,91.4646551496668,143.7103823402583,91.06182178738528
0.3000255303464827,90.96018684758884,143.7103823402583,91.06182178738528
0.3459265771438903,90.68140745828936,143.7103823402583,91.06182178738528
0.3950742855456642,90.62688516326496,143.7103823402583,91.06182178738528
0.4469090571619871,90.7557755646825,143.7103823402583,91.06182178738528
0.4991073337600007,90.9925904115281,143.7103823402583,91.06182178738528
0.5506580236636894,91.30509581373916,143.7103823402583,91.06182178738528
0.6001251627005946,91.67869051073468,143.7103823402583,91.06182178738528
0.6461062392946966,92.07041644891208,143.7103823402583,91.06182178738528
0.6873258689588571,92.3554131914579,143.7103823402583,91.06182178738528
0.7224032395212019,92.49074642013196,143.7103823402583,91.06182178738528
0.7509391628790306,92.47772466907604,143.7103823402583,91.06182178738528
0.771682465997309,92.25496694572466,143.7103823402583,91.06182178738528
0.7851983707340225,91.92193892020089,143.7103823402583,91.06182178738528
0.7906558872321725,91.4522635066589,143.7103823402583,91.06182178738528
0.7886460692890515,90.877570866505,143.7103823402583,91.06182178738528
0.7788569377584911,90.21117302453048,143.7103823402583,91.06182178738528
0.7627673275176485,89.50278586916959,143.7103823402583,91.06182178738528
0.740479229377165,88.7727853762061,143.7103823402583,91.06182178738528
0.7129050730308945,88.01040893312882,143.7103823402583,91.06182178738528
0.680597755235925,87.24073918544757,143.7103823402583,91.06182178738528
0.6449812285036359,86.45468622289263,143.7103823402583,91.06182178738528
0.6067782405743865,85.6635357174491,143.7103823402583,91.06182178738528
0.5667380120900168,84.88209378498873,143.7103823402583,91.06182178738528
0.5257750555548875,84.27395307422998,143.7103823402583,91.06182178738528
0.4849242444358538,84.68219346136378,143.7103823402583,91.06182178738528
0.445057255688292,86.75859916313706,143.7103823402583,91.06182178738528
0.4067307089653232,91.1070966598752,143.7103823402583,91.06182178738528
0.3708316373901185,97.7705172280353,143.7103823402583,91.06182178738528
0.3372865800496669,105.82422775626546,143.7103823402583,91.06182178738528
0.3067902398324185,114.3069183737557,143.7103823402583,91.06182178738528
0.279597551519823,122.25097292947896,143.7103823402583,91.06182178738528
0.2561511484215472,129.10520879141257,143.7103823402583,91.06182178738528
0.2358101947808555,134.86264558959357,143.7103823402583,91.06182178738528
0.2188647024225632,139.27716766400206,143.7103823402583,91.06182178738528
0.2049575494421639,142.33176953709778,143.7103823402583,91.06182178738528
0.194057835924972,143.85701884114314,143.7103823402583,91.06182178738528
0.1851315176358424,144.16780649792597,144.16780649792597,91.06182178738528
0.1779676194216797,143.44720553061904,144.16780649792597,91.06182178738528
0.1721236870627906,142.1050572543605,144.16780649792597,91.06182178738528
0.1671421377385259,140.36856696324233,144.16780649792597,91.06182178738528
0.1622258477770179,138.31186239360233,144.16780649792597,91.06182178738528
0.1568978760244196,136.1087758293358,144.16780649792597,91.06182178738528
0.1509075471046229,133.7437463094592,144.16780649792597,91.06182178738528
0.1437122136412772,131.34557615328757,144.16780649792597,91.06182178738528
0.1357404625286503,128.85439723617876,144.16780649792597,91.06182178738528
0.1266346063578273,126.34113524190008,144.16780649792597,91.06182178738528
0.1167075885283277,123.68696117537696,144.16780649792597,91.06182178738528
0.1058829775436,120.90921286270856,144.16780649792597,91.06182178738528
0.0954165992056749,117.88238805406904,144.16780649792597,91.06182178738528
0.0854655267751427,114.57336002836786,144.16780649792597,91.06182178738528
0.0770030802605026,111.12544974263396,144.16780649792597,91.06182178738528
0.070568067950707,107.52918273677996,144.16780649792597,91.06182178738528
0.0676578689463871,104.17157424759472,144.16780649792597,91.06182178738528
0.069014381645257,101.12576817111471,144.16780649792597,91.06182178738528
0.0752067863463062,98.47578529512565,144.16780649792597,91.06182178738528
0.0871619513603123,96.36378874144768,144.16780649792597,91.06182178738528
0.1052987616121944,94.6316974231474,144.16780649792597,91.06182178738528
0.1303828735923432,93.37127237464978,144.16780649792597,91.06182178738528
0.1618751541351444,92.4445944114202,144.16780649792597,91.06182178738528
0.2003169395677934,91.85196220446856,144.16780649792597,91.06182178738528
0.2441194807069949,91.49676355690076,144.16780649792597,91.06182178738528
0.2932546322473927,91.3347265870656,144.16780649792597,91.06182178738528
0.3460534555413927,91.37008455636295,144.16780649792597,91.06182178738528
0.4019069953794419,91.55091475785396,144.16780649792597,91.06182178738528
0.4583142231952878,91.79614628104368,144.16780649792597,91.06182178738528
0.5142005722515104,92.06697306033595,144.16780649792597,91.06182178738528
0.5680883382562477,92.33441037481096,144.16780649792597,91.06182178738528
0.6184824187094806,92.54819447782472,144.16780649792597,91.06182178738528
0.6641283325846409,92.71929127244688,144.16780649792597,91.06182178738528
0.7035799738870542,92.81024030196753,144.16780649792597,91.06182178738528
0.7363316676054367,92.74728761315257,144.16780649792597,91.06182178738528
0.7610856497794845,92.50224304865851,144.16780649792597,91.06182178738528
0.7783420951779835,92.183919743009,144.16780649792597,91.06182178738528
0.7872038480378956,91.7650116842507,144.16780649792597,91.06182178738528
0.7882560216583502,91.2370921132883,144.16780649792597,91.06182178738528
0.7811278846204114,90.61297108556116,144.16780649792597,91.06182178738528
0.7672311537049785,89.97727215031384,144.16780649792597,91.06182178738528
0.7466226914522677,89.34238996311538,144.16780649792597,91.06182178738528
0.7202610682849355,88.68125629510176,144.16780649792597,91.06182178738528
0.6886566471144622,88.02250014726744,144.16780649792597,91.06182178738528
0.6534065120650234,87.34882921597627,144.16780649792597,91.06182178738528
0.6152378505494077,86.66776278625137,144.16780649792597,91.06182178738528
0.5748966790230285,85.9824322298801,144.16780649792597,91.06182178738528
0.5333463598888112,85.47472698331842,144.16780649792597,91.06182178738528
0.4915539220077456,85.97296615584285,144.16780649792597,91.06182178738528
0.4504112243938208,88.08687356242808,144.16780649792597,91.06182178738528
0.4106575478189486,92.3816097386008,144.16780649792597,91.06182178738528
0.3731934381949403,98.8642387440168,144.16780649792597,91.06182178738528
0.3381283257179829,106.61725245261373,144.16780649792597,91.06182178738528
0.3062356531454994,114.72117734132333,144.16780649792597,91.06182178738528
0.2777281876940745,122.2653038888836,144.16780649792597,91.06182178738528
0.2531410958528634,128.75338826160674,144.16780649792597,91.06182178738528
0.2318481692117273,134.21796293245865,144.16780649792597,91.06182178738528
0.2141854840453398,138.41352687938013,144.16780649792597,91.06182178738528
0.1998394638017759,141.31092211113335,144.16780649792597,91.06182178738528
0.1888183257788098,142.7534357774313,144.16780649792597,91.06182178738528
0.1800085702757834,143.04530409910706,143.04530409910706,91.06182178738528
0.1732276971996031,142.3655270108692,143.04530409910706,91.06182178738528
0.1680840444798651,141.10018314955536,143.04530409910706,91.06182178738528
0.1641209911034478,139.46930281167369,143.04530409910706,91.06182178738528
0.1606248638353145,137.48852333493414,143.04530409910706,91.06182178738528
0.1571434287615806,135.2999048579757,143.04530409910706,91.06182178738528
0.1534005544659406,132.84935171458918,143.04530409910706,91.06182178738528
0.1488885364361276,130.2268287090256,143.04530409910706,91.06182178738528
0.1437677375799168,127.46927295211756,143.04530409910706,91.06182178738528
0.1376667809853583,124.62314453957418,143.04530409910706,91.06182178738528
0.1309224574733428,121.68054676881955,143.04530409910706,91.06182178738528
0.1233792900188271,118.68167249100894,143.04530409910706,91.06182178738528
0.1161612520403913,115.46549465903522,143.04530409910706,91.06182178738528
0.1093728278632677,112.0382821127295,143.04530409910706,91.06182178738528
0.1038516022561097,108.53386965556324,143.04530409910706,91.06182178738528
0.1000517671349385,104.97034160321036,143.04530409910706,91.06182178738528
0.0994688539669449,101.72761012217478,143.04530409910706,91.06182178738528
0.1027557866738383,98.89295475763582,143.04530409910706,91.06182178738528
0.1104007210460395,96.45597150570886,143.04530409910706,91.06182178738528
0.1232670292860188,94.52823368570802,143.04530409910706,91.06182178738528
0.1416967787873209,92.92297769544408,143.04530409910706,91.06182178738528
0.1663846658875931,91.6857077180298,143.04530409910706,91.06182178738528
0.1969304191637098,90.74400097855386,143.04530409910706,91.06182178738528
0.2338247919587867,90.06905665065855,143.04530409910706,91.06182178738528
0.2755710535209035,89.64949035626212,143.04530409910706,91.06182178738528
0.3221938671448368,89.44946578059181,143.04530409910706,91.06182178738528
0.3720869208399923,89.44216994410142,143.04530409910706,91.06182178738528
0.4247013301504831,89.59988347570146,143.04530409910706,91.06182178738528
0.4777045666283501,89.85091355640647,143.04530409910706,91.06182178738528
0.5300936785583299,90.1628956388299,143.04530409910706,91.06182178738528
0.5804162390741788,90.51359483209316,143.04530409910706,91.06182178738528
0.6272706591430943,90.86086208829364,143.04530409910706,91.06182178738528
0.6693730692172173,91.12936958797306,143.04530409910706,91.06182178738528
0.7053380626789699,91.2795938406033,143.04530409910706,91.06182178738528
0.7347615651131293,91.28951794488958,143.04530409910706,91.06182178738528
0.7563869405451752,91.11124806957832,143.04530409910706,91.06182178738528
0.7707686936547915,90.79631904605752,143.04530409910706,91.06182178738528
0.7770700326493091,90.31472099088415,143.04530409910706,91.06182178738528
0.7758682822577652,89.70884702559042,143.04530409910706,91.06182178738528
0.7668434811578347,88.97820964375939,143.04530409910706,91.06182178738528
0.751467797763172,88.2555167911942,143.04530409910706,91.06182178738528
0.7298338630715059,87.56467104706941,143.04530409910706,91.06182178738528
0.7028581412663147,86.89908414895478,143.04530409910706,91.06182178738528
0.6710863674772954,86.30894378467504,143.04530409910706,91.06182178738528
0.635953167101451,85.69995989919833,143.04530409910706,91.06182178738528
0.598179004014774,85.09030073262264,143.04530409910706,91.06182178738528
0.5585277167062662,84.48400201402819,143.04530409910706,91.06182178738528
0.5179166865755518,84.03264962197954,143.04530409910706,91.06182178738528
0.4774013192986288,84.50548134488078,143.04530409910706,91.06182178738528
0.4378610401570285,86.54900956709615,143.04530409910706,91.06182178738528
0.3998796646852037,90.80803734049368,143.04530409910706,91.06182178738528
0.364357340532964,97.35218333986018,143.04530409910706,91.06182178738528
0.3312495339883715,105.28381197296126,143.04530409910706,91.06182178738528
0.3012693963781662,113.66247696631233,143.04530409910706,91.06182178738528
0.2746916127400398,121.52024114691842,143.04530409910706,91.06182178738528
0.2519800952196426,128.29734865407713,143.04530409910706,91.06182178738528
0.2324939122611543,133.98187594285378,143.04530409910706,91.06182178738528
0.2165415950773505,138.32259244360554,143.04530409910706,91.06182178738528
0.2037490337265811,141.28724558312447,143.04530409910706,91.06182178738528
0.1940950938422292,142.70013429207643,143.04530409910706,91.06182178738528
0.1865220963432856,142.8528888111081,142.8528888111081,91.06182178738528
0.1808182856704895,141.94731318518706,142.8528888111081,91.06182178738528
0.1765002716729225,140.47233002412935,142.8528888111081,91.06182178738528
0.173099626919622,138.66714903813272,142.8528888111081,91.06182178738528
0.1697423531352053,136.70685391149732,142.8528888111081,91.06182178738528
0.1659258832443229,134.7173353240748,142.8528888111081,91.06182178738528
0.1614172154977405,132.52801387810524,142.8528888111081,91.06182178738528
0.1556388261048588,130.25328705404758,142.8528888111081,91.06182178738528
0.1488812077666418,127.8070686770469,142.8528888111081,91.06182178738528
0.1407563504830994,125.20364572573504,142.8528888111081,91.06182178738528
0.1315557098428456,122.56257848705238,142.8528888111081,91.06182178738528
0.1211429763507137,119.885416668968,142.8528888111081,91.06182178738528
0.1107097663974946,116.96874086884348,142.8528888111081,91.06182178738528
0.1003649664443212,113.82671868716456,142.8528888111081,91.06182178738528
0.0910525975494305,110.49541564563413,142.8528888111081,91.06182178738528
0.0832601894454174,106.9775227243625,142.8528888111081,91.06182178738528
0.0784895818842784,103.62817757098328,142.8528888111081,91.06182178738528
0.0774434447023684,100.52511521180254,142.8528888111081,91.06182178738528
0.0807391297252729,97.87911129169784,142.8528888111081,91.06182178738528
0.0892849837327872,95.82256382156056,142.8528888111081,91.06182178738528
0.1035920174776856,94.19626692022857,142.8528888111081,91.06182178738528
0.124436525595949,93.11064961461533,142.8528888111081,91.06182178738528
0.151403175379175,92.38072440648286,142.8528888111081,91.06182178738528
0.1850772053137214,92.01182716143356,142.8528888111081,91.06182178738528
0.2239889214432908,91.81042185385483,142.8528888111081,91.06182178738528
0.2681928969237002,91.71277795223736,142.8528888111081,91.06182178738528
0.3161039746911734,91.7384986652406,142.8528888111081,91.06182178738528
0.3672044428904417,91.79916718539027,142.8528888111081,91.06182178738528
0.4190338896636867,91.91955953169696,142.8528888111081,91.06182178738528
0.470601293622559,92.0543706204626,142.8528888111081,91.06182178738528
0.5204365179010108,92.17195438326765,142.8528888111081,91.06182178738528
0.5671084873456882,92.24610278494778,142.8528888111081,91.06182178738528
0.6093794870018421,92.27728850819248,142.8528888111081,91.06182178738528
0.6458476210774465,92.2396446890178,142.8528888111081,91.06182178738528
0.6760643233867512,92.09016067125746,142.8528888111081,91.06182178738528
0.6987705748968964,91.80858370526984,142.8528888111081,91.06182178738528
0.7145612561377418,91.4437042664358,142.8528888111081,91.06182178738528
0.7225891232056663,90.97572912612182,142.8528888111081,91.06182178738528
0.7235460646901241,90.37755768489698,142.8528888111081,91.06182178738528
0.717129175624811,89.64787729397685,142.8528888111081,91.06182178738528
0.7048376340669641,88.91182620754047,142.8528888111081,91.06182178738528
0.6868082602971087,88.17301785596436,142.8528888111081,91.06182178738528
0.6640372476765254,87.45395956217723,142.8528888111081,91.06182178738528
0.6371121077410482,86.79409925787525,142.8528888111081,91.06182178738528
0.6075908084832685,86.09552835317963,142.8528888111081,91.06182178738528
0.5762547515950419,85.377152249118,142.8528888111081,91.06182178738528
0.5437187968696461,84.64292336679526,142.8528888111081,91.06182178738528
0.5109562943107804,84.1595395474082,142.8528888111081,91.06182178738528
0.4787193244535271,84.82394595406075,142.8528888111081,91.06182178738528
0.4478489911580999,87.36819121254257,142.8528888111081,91.06182178738528
0.4188179275774651,92.38244853758688,142.8528888111081,91.06182178738528
0.392410401667455,99.72031829252604,142.8528888111081,91.06182178738528
0.3684588429040438,108.27232965984544,142.8528888111081,91.06182178738528
0.3475646726173608,117.01244847436142,142.8528888111081,91.06182178738528
0.3296922431088695,125.02074550265148,142.8528888111081,91.06182178738528
0.3151699289422189,131.83149602015766,142.8528888111081,91.06182178738528
0.3031820318185005,137.47742922003874,142.8528888111081,91.06182178738528
0.2938495314091786,141.68596336915584,142.8528888111081,91.06182178738528
0.2867399762872595,144.44610946585095,142.8528888111081,91.06182178738528
0.2816639621210068,145.58903890670132,145.58903890670132,91.06182178738528
0.2774627830291921,145.5593967397367,145.58903890670132,91.06182178738528
0.2737933087921844,144.60062320234618,145.58903890670132,91.06182178738528
0.2703212473735975,143.11255206447572,145.58903890670132,91.06182178738528
0.2664824886938567,141.39224229673238,145.58903890670132,91.06182178738528
0.2617469586688338,139.3924283213926,145.58903890670132,91.06182178738528
0.255628733759265,137.26844635552857,145.58903890670132,91.06182178738528
0.2478954014303377,134.97208568150984,145.58903890670132,91.06182178738528
0.2380711411960194,132.58737288419442,145.58903890670132,91.06182178738528
0.2266720132544618,130.14827003757512,145.58903890670132,91.06182178738528
0.2133921613693271,127.69980706459197,145.58903890670132,91.06182178738528
0.1987189939083046,125.14063273095346,145.58903890670132,91.06182178738528
0.1826512292401375,122.49926091989242,145.58903890670132,91.06182178738528
0.166565257244339,119.56401476687046,145.58903890670132,91.06182178738528
0.1507247842062095,116.30298696295786,145.58903890670132,91.06182178738528
0.1361912437799912,112.8732547631954,145.58903890670132,91.06182178738528
0.1236106337640062,109.2871061857605,145.58903890670132,91.06182178738528
0.114686595681909,105.93325459088535,145.58903890670132,91.06182178738528
0.1102730342936546,102.90134849743716,145.58903890670132,91.06182178738528
0.1110263783697947,100.20735021095302,145.58903890670132,91.06182178738528
0.1180091936579673,97.99983452963669,145.58903890670132,91.06182178738528
0.1316518695180123,96.14748682966862,145.58903890670132,91.06182178738528
0.1528282853735879,94.73013283398902,145.58903890670132,91.06182178738528
0.1811292335091363,93.6507525170148,145.58903890670132,91.06182178738528
0.2171346438001042,92.91485649180036,145.58903890670132,91.06182178738528
0.2592886179745741,92.41288326547053,145.58903890670132,91.06182178738528
0.3075544641268869,92.1131334264539,145.58903890670132,91.06182178738528
0.3601587166735471,92.02433741445438,145.58903890670132,91.06182178738528
0.4164642891683059,92.0988103415765,145.58903890670132,91.06182178738528
0.4738203258047614,92.22828032534044,145.58903890670132,91.06182178738528
0.5310910561732096,92.3753992838138,145.58903890670132,91.06182178738528
0.5864834107411058,92.53170869210008,145.58903890670132,91.06182178738528
0.6383915636671095,92.64244779479348,145.58903890670132,91.06182178738528
0.6852647320409315,92.69179626937932,145.58903890670132,91.06182178738528
0.7254718123271835,92.64280121884148,145.58903890670132,91.06182178738528
0.7584683136228837,92.48115447864951,145.58903890670132,91.06182178738528
0.7827586906679109,92.17734750715564,145.58903890670132,91.06182178738528
0.7988675036760368,91.82258779416316,145.58903890670132,91.06182178738528
0.8057959560070259,91.40371712200904,145.58903890670132,91.06182178738528
0.8041835958044314,90.8888108067212,145.58903890670132,91.06182178738528
0.7936050734644111,90.29132600679816,145.58903890670132,91.06182178738528
0.7756737305184491,89.67765485239977,145.58903890670132,91.06182178738528
0.7504466387898118,89.05273857586124,145.58903890670132,91.06182178738528
0.7190061160726472,88.40622754611485,145.58903890670132,91.06182178738528
0.6819294729117427,87.75913226253893,145.58903890670132,91.06182178738528
0.6408154858898044,87.05546020693876,145.58903890670132,91.06182178738528
0.5964644489697866,86.2987527557845,145.58903890670132,91.06182178738528
0.5497827560930383,85.58835915145686,145.58903890670132,91.06182178738528
0.5017955273624546,85.31125130245051,145.58903890670132,91.06182178738528
0.4536645779428496,86.54865875437329,145.58903890670132,91.06182178738528
0.4063854254973532,89.95943734033875,145.58903890670132,91.06182178738528
0.3606115572449209,95.86564124502812,145.58903890670132,91.06182178738528
0.3173513324644453,103.89466419620952,145.58903890670132,91.06182178738528
0.2766074711564728,112.8106112291994,145.58903890670132,91.06182178738528
0.2391846047749397,121.59776285687153,145.58903890670132,91.06182178738528
0.2053967056020303,129.42901341799933,145.58903890670132,91.06182178738528
0.1757821473482972,135.887514655443,145.58903890670132,91.06182178738528
0.1497351154312476,140.99042245934967,145.58903890670132,91.06182178738528
0.1276254610084545,144.48516370952032,145.58903890670132,91.06182178738528
0.1091044822526352,146.48247889788766,145.58903890670132,91.06182178738528
0.0942019166969544,146.94655170777867,146.94655170777867,91.06182178738528
0.0818747772293214,146.46711339525308,146.94655170777867,91.06182178738528
0.0719517881602732,145.3073349092481,146.94655170777867,91.06182178738528
0.0639801671929929,143.79412661325097,146.94655170777867,91.06182178738528
0.0575241890817342,142.1588951582513,146.94655170777867,91.06182178738528
0.0517904901280867,140.27205790979465,146.94655170777867,91.06182178738528
0.0463139090154973,138.2607115146122,146.94655170777867,91.06182178738528
0.0408729018086907,136.05446543255053,146.94655170777867,91.06182178738528
0.0349365991118417,133.692827959882,146.94655170777867,91.06182178738528
0.0289774019286963,131.161802264665,146.94655170777867,91.06182178738528
0.0226575701739625,128.46856585514007,146.94655170777867,91.06182178738528
0.0163431379316127,125.58149703808954,146.94655170777867,91.06182178738528
0.0099873569861713,122.49932249395856,146.94655170777867,91.06182178738528
0.0048849873581495,119.14336036324848,146.94655170777867,91.06182178738528
0.001229861234668,115.49623842520666,146.94655170777867,91.06182178738528
0.0,111.7427592756552,146.94655170777867,91.06182178738528
0.0017679563394633,107.90658755287274,146.94655170777867,91.06182178738528
0.0079810087422221,104.37015348509752,146.94655170777867,91.06182178738528
0.0193981549746059,101.23739942192395,146.94655170777867,91.06182178738528
0.0364701127350758,98.52834365227142,146.94655170777867,91.06182178738528
0.0601087963649664,96.37234667735116,146.94655170777867,91.06182178738528
0.0905319329346831,94.61289650457984,146.94655170777867,91.06182178738528
0.1284434746380816,93.31806288299104,146.94655170777867,91.06182178738528
0.1730758008533122,92.381023339993,146.94655170777867,91.06182178738528
0.2247978894424582,91.79161703466012,146.94655170777867,91.06182178738528
0.2818090487081074,91.45181067534357,146.94655170777867,91.06182178738528
0.3438686784021235,91.31886084814042,146.94655170777867,91.06182178738528
0.4091041634471505,91.37701398871732,146.94655170777867,91.06182178738528
0.4766969855749971,91.57228176179774,146.94655170777867,91.06182178738528
0.5440003397085587,91.79329255158892,146.94655170777867,91.06182178738528
0.6097381812543188,91.9914025992475,146.94655170777867,91.06182178738528
0.6723721107219692,92.14691409267246,146.94655170777867,91.06182178738528
0.7302353041451469,92.19630693870704,146.94655170777867,91.06182178738528
0.7820966266888301,92.25870702319251,146.94655170777867,91.06182178738528
0.8263881297073293,92.3023810551934,146.94655170777867,91.06182178738528
0.8626957684883088,92.2814750538784,146.94655170777867,91.06182178738528
0.8896603747317731,92.20369158625644,146.94655170777867,91.06182178738528
0.9079063822042748,92.02279646446988,146.94655170777867,91.06182178738528
0.9165345234848542,91.72409119083537,146.94655170777867,91.06182178738528
0.9162511361667652,91.29961199215924,146.94655170777867,91.06182178738528
0.906728821578588,90.72753085121865,146.94655170777867,91.06182178738528
0.889480416740762,90.11679925660064,146.94655170777867,91.06182178738528
0.8646318415640621,89.46327066318486,146.94655170777867,91.06182178738528
0.8332252276702142,88.80300179992012,146.94655170777867,91.06182178738528
0.7958493060903818,88.1669215813595,146.94655170777867,91.06182178738528
0.7541777111866355,87.46256269057909,146.94655170777867,91.06182178738528
0.7090168409602416,86.7079787693648,146.94655170777867,91.06182178738528
0.6611897290565983,86.10940972884465,146.94655170777867,91.06182178738528
0.6117379370890021,86.11612296413762,146.94655170777867,91.06182178738528
0.5617087896132653,87.7665784935595,146.94655170777867,91.06182178738528
0.5120722753364843,91.5640289546432,146.94655170777867,91.06182178738528
0.463651554800228,97.6401127449678,146.94655170777867,91.06182178738528
0.4174265067445861,105.49166439528187,146.94655170777867,91.06182178738528
0.373594690464345,113.92353453139135,146.94655170777867,91.06182178738528
0.3330110081016383,122.08862626767473,146.94655170777867,91.06182178738528
0.2959808056705805,129.33257615370388,146.94655170777867,91.06182178738528
0.263123628185988,135.33473436107406,146.94655170777867,91.06182178738528
0.2339012801214008,140.12657053823088,146.94655170777867,91.06182178738528
0.2087367581931963,143.42268203594278,146.94655170777867,91.06182178738528
0.1873905536126285,145.29523560170418,146.94655170777867,91.06182178738528
0.1699566709326727,145.67238363511194,145.67238363511194,91.06182178738528
0.1553775109441079,145.09486059222485,145.67238363511194,91.06182178738528
0.1435500465699685,143.77631454719463,145.67238363511194,91.06182178738528
0.1340892176332268,142.02318643396725,145.67238363511194,91.06182178738528
0.1266040482164452,140.09733898630202,145.67238363511194,91.06182178738528
0.1203075821162982,137.9303420357109,145.67238363511194,91.06182178738528
0.1147829910087811,135.7059191360831,145.67238363511194,91.06182178738528
0.1098790178593088,133.3336501784915,145.67238363511194,91.06182178738528
0.1051034511910656,130.90184662568493,145.67238363511194,91.06182178738528
0.1004346891665971,128.31046227022802,145.67238363511194,91.06182178738528
0.0955281464865729,125.58263331886845,145.67238363511194,91.06182178738528
0.0907779715868877,122.6669515468527,145.67238363511194,91.06182178738528
0.0859995002153244,119.5472965905667,145.67238363511194,91.06182178738528
0.0822630642838838,116.18705722137145,145.67238363511194,91.06182178738528
0.0796683150118143,112.559903173259,145.67238363511194,91.06182178738528
0.0790090246467576,108.96014548200203,145.67238363511194,91.06182178738528
0.0807157172498388,105.43156548140222,145.67238363511194,91.06182178738528
0.0862008170098875,102.2601716960706,145.67238363511194,91.06182178738528
0.096082672884096,99.58178569044053,145.67238363511194,91.06182178738528
0.1107034425718471,97.29535483196692,145.67238363511194,91.06182178738528
0.1308673313506962,95.5415307184904,145.67238363511194,91.06182178738528
0.1566968809335746,94.14863368600848,145.67238363511194,91.06182178738528
0.1887878694150752,93.15708948578776,145.67238363511194,91.06182178738528
0.2264676144477671,92.526663475394,145.67238363511194,91.06182178738528
0.2700780630545704,92.23454380329846,145.67238363511194,91.06182178738528
0.3178611612342378,92.09066360908528,145.67238363511194,91.06182178738528
0.3696472073172344,92.05301297562944,145.67238363511194,91.06182178738528
0.4236630580145644,92.1634197841892,145.67238363511194,91.06182178738528
0.4791515961255513,92.3478219484059,145.67238363511194,91.06182178738528
0.533764812526585,92.58663461144457,145.67238363511194,91.06182178738528
0.5863236237870454,92.8454119331923,145.67238363511194,91.06182178738528
0.635507248717167,93.04688962272668,145.67238363511194,91.06182178738528
0.6798132703430491,93.154564126692,145.67238363511194,91.06182178738528
0.7181738747951412,93.1607694844638,145.67238363511194,91.06182178738528
0.7491972444191762,93.02062211032558,145.67238363511194,91.06182178738528
0.7727153211095382,92.76949413794756,145.67238363511194,91.06182178738528
0.7875481223665545,92.38159661075264,145.67238363511194,91.06182178738528
0.7944619805388714,91.94312661132852,145.67238363511194,91.06182178738528
0.7927515888094152,91.45611380335106,145.67238363511194,91.06182178738528
0.7831625196093416,90.8474458985742,145.67238363511194,91.06182178738528
0.7655301134210809,90.13376720614936,145.67238363511194,91.06182178738528
0.7414622918509872,89.4183932965799,145.67238363511194,91.06182178738528
0.7112075143296116,88.70101954766028,145.67238363511194,91.06182178738528
0.6757816393951179,87.96277127282158,145.67238363511194,91.06182178738528
0.6358747617101788,87.2313019185292,145.67238363511194,91.06182178738528
0.5930120326942695,86.47641620000464,145.67238363511194,91.06182178738528
0.5480406388444834,85.70546493803141,145.67238363511194,91.06182178738528
0.5018159368337016,85.21613378994692,145.67238363511194,91.06182178738528
0.4553690566691974,85.48643523814631,145.67238363511194,91.06182178738528
0.4097733455738257,87.52854833376932,145.67238363511194,91.06182178738528
0.3660064718117045,91.8031935049094,145.67238363511194,91.06182178738528
0.3246631476367946,98.31379643485386,145.67238363511194,91.06182178738528
0.2867109428021361,106.40839937625768,145.67238363511194,91.06182178738528
0.2521107504552283,114.74212796265324,145.67238363511194,91.06182178738528
0.2216223118483981,122.53985922299633,145.67238363511194,91.06182178738528
0.1953131537388469,129.3230102471149,145.67238363511194,91.06182178738528
0.1736570618685986,134.85911620199388,145.67238363511194,91.06182178738528
0.1557319018089402,139.1972333529771,145.67238363511194,91.06182178738528
0.1417668778505899,142.0624271266095,145.67238363511194,91.06182178738528
0.1312696627024145,143.55176105748836,145.67238363511194,91.06182178738528
0.1240832215246802,143.63592810778047,143.63592810778047,91.06182178738528
0.1190583557411927,142.89047939462927,143.63592810778047,91.06182178738528
0.1158595441879308,141.51778436079132,143.63592810778047,91.06182178738528
0.1139228167893765,139.76817540068964,143.63592810778047,91.06182178738528
0.1126689200967024,137.8363343549512,143.63592810778047,91.06182178738528
0.1113197518490826,135.61766491635063,143.63592810778047,91.06182178738528
0.1092910930873324,133.2881475457603,143.63592810778047,91.06182178738528
0.1064078292662658,130.79148729184436,143.63592810778047,91.06182178738528
0.1020736496516557,128.20184858472584,143.63592810778047,91.06182178738528
0.0969218722659997,125.42258399152216,143.63592810778047,91.06182178738528
0.0906015548107354,122.478334998812,143.63592810778047,91.06182178738528
0.083598219687163,119.3471230675754,143.63592810778047,91.06182178738528
0.0759120529345705,116.0170189778026,143.63592810778047,91.06182178738528
0.068984763185115,112.53830916988768,143.63592810778047,91.06182178738528
0.0630850137204218,108.9043294302384,143.63592810778047,91.06182178738528
0.0592955146717351,105.38964403760524,143.63592810778047,91.06182178738528
0.0582856857970525,102.03228192112772,143.63592810778047,91.06182178738528
0.0615459433293636,99.07601461236064,143.63592810778047,91.06182178738528
0.0699278038320721,96.64439639899426,143.63592810778047,91.06182178738528
0.0838491938574648,94.65506535301668,143.63592810778047,91.06182178738528
0.1042879852146403,93.21945403727572,143.63592810778047,91.06182178738528
0.1313559794820425,92.11950011782328,143.63592810778047,91.06182178738528
0.1657788937409004,91.37887337686632,143.63592810778047,91.06182178738528
0.2066710925496661,90.97163019909044,143.63592810778047,91.06182178738528
0.2543363001960738,90.85250791017184,143.63592810778047,91.06182178738528
0.3068794358293777,90.8878657722638,143.63592810778047,91.06182178738528
0.3639717472998299,91.03193866989515,143.63592810778047,91.06182178738528
0.4236720526698539,91.29746605799716,143.63592810778047,91.06182178738528
0.4850749999947221,91.62005809419648,143.63592810778047,91.06182178738528
0.5455490072765408,91.94024956695658,143.63592810778047,91.06182178738528
0.6037467686030185,92.21666720001446,143.63592810778047,91.06182178738528
0.6582527712250431,92.3969287461389,143.63592810778047,91.06182178738528
0.7073724767114015,92.4323899476233,143.63592810778047,91.06182178738528
0.7500744865177247,92.36115264261647,143.63592810778047,91.06182178738528
0.7848268253141797,92.14278655766296,143.63592810778047,91.06182178738528
0.8114359010234872,91.7981276113301,143.63592810778047,91.06182178738528
0.8286405518187941,91.31472065325124,143.63592810778047,91.06182178738528
0.8372651471890432,90.775991993061,143.63592810778047,91.06182178738528
0.8365533031805032,90.18741482607489,143.63592810778047,91.06182178738528
0.8273831779731686,89.49116553733501,143.63592810778047,91.06182178738528
0.8095871871474839,88.70726158371242,143.63592810778047,91.06182178738528
0.7848290535139096,87.96038499513517,143.63592810778047,91.06182178738528
0.7533961840012204,87.25880472341898,143.63592810778047,91.06182178738528
0.7164571409460551,86.54880579026677,143.63592810778047,91.06182178738528
0.6747554809123957,85.86549875866882,143.63592810778047,91.06182178738528
0.630057642891115,85.17773724780496,143.63592810778047,91.06182178738528
0.5833108015097329,84.48764070076399,143.63592810778047,91.06182178738528
0.5353693561455632,84.32078821046237,143.63592810778047,91.06182178738528
0.4873915620234403,85.23615981875747,143.63592810778047,91.06182178738528
0.4403765368824502,88.06918219437938,143.63592810778047,91.06182178738528
0.3953711428562301,93.2693857653212,143.63592810778047,91.06182178738528
0.3530529430970685,100.3675377890816,143.63592810778047,91.06182178738528
0.3144225077950886,108.59790705782852,143.63592810778047,91.06182178738528
0.2794043767900019,116.70169781788638,143.63592810778047,91.06182178738528
0.2487998127798412,124.00156677580428,143.63592810778047,91.06182178738528
0.2225639719480347,130.2734983008315,143.63592810778047,91.06182178738528
0.2011740669775988,135.31983144634862,143.63592810778047,91.06182178738528
0.1836970684007594,139.15806939928905,143.63592810778047,91.06182178738528
0.1703333771510792,141.58323424858662,143.63592810778047,91.06182178738528
0.1604485097953059,142.6760832156602,142.6760832156602,91.06182178738528
0.1538514706623941,142.4731958465816,142.6760832156602,91.06182178738528
0.1491985371158553,141.54624951470734,142.6760832156602,91.06182178738528
0.146073563134643,140.0538298624103,142.6760832156602,91.06182178738528
0.143978723138597,138.18924198262832,142.6760832156602,91.06182178738528
0.1422394170160321,136.1149410313086,142.6760832156602,91.06182178738528
0.140248999544142,133.7376528365882,142.6760832156602,91.06182178738528
0.137401381098262,131.20199262739894,142.6760832156602,91.06182178738528
0.1335213214614431,128.54363855765888,142.6760832156602,91.06182178738528
0.1280437715135805,125.8300294538342,142.6760832156602,91.06182178738528
0.1216136692218129,123.00253564029468,142.6760832156602,91.06182178738528
0.113898056541909,120.1102533008624,142.6760832156602,91.06182178738528
0.1055776411826132,117.04286830759564,142.6760832156602,91.06182178738528
0.0966876570777845,113.80366980074962,142.6760832156602,91.06182178738528
0.0887831578014732,110.40854893007952,142.6760832156602,91.06182178738528
0.0822200850794122,106.8530222584629,142.6760832156602,91.06182178738528
0.0780891393821852,103.46901718099792,142.6760832156602,91.06182178738528
0.0771437728488662,100.29275493531908,142.6760832156602,91.06182178738528
0.0808854235420713,97.54616577864324,142.6760832156602,91.06182178738528
0.0902209269448296,95.36572903346077,142.6760832156602,91.06182178738528
0.1055298139357407,93.62248613924172,142.6760832156602,91.06182178738528
0.1278245141201133,92.41684028463828,142.6760832156602,91.06182178738528
0.156829553563513,91.50451350412614,142.6760832156602,91.06182178738528
0.1932422616032491,90.88769997686904,142.6760832156602,91.06182178738528
0.2361177932410601,90.55725345208334,142.6760832156602,91.06182178738528
0.2855923674867356,90.44952497936242,142.6760832156602,91.06182178738528
0.3396019115433554,90.50513204573522,142.6760832156602,91.06182178738528
0.3976824482868245,90.67919448130986,142.6760832156602,91.06182178738528
0.4577489926597898,90.9275180877807,142.6760832156602,91.06182178738528
0.518749120299093,91.20035861592385,142.6760832156602,91.06182178738528
0.5780909751085448,91.484326237471,142.6760832156602,91.06182178738528
0.6343008689776429,91.73520056187772,142.6760832156602,91.06182178738528
0.6859833685063278,91.88793337809652,142.6760832156602,91.06182178738528
0.731378309248401,91.904561590534,142.6760832156602,91.06182178738528
0.7695440242361373,91.80543774846691,142.6760832156602,91.06182178738528
0.7989201690553027,91.55070968426782,142.6760832156602,91.06182178738528
0.8195864897440268,91.16198461789767,142.6760832156602,91.06182178738528
0.830405568540639,90.62272498306082,142.6760832156602,91.06182178738528
0.8324343494535709,90.03794572711655,142.6760832156602,91.06182178738528
0.825154554662724,89.41325698407329,142.6760832156602,91.06182178738528
0.8096761159923953,88.70607721117354,142.6760832156602,91.06182178738528
0.7860620897577357,87.94394375928297,142.6760832156602,91.06182178738528
0.7562665772949562,87.20990591383973,142.6760832156602,91.06182178738528
0.7208144366240806,86.51652143898585,142.6760832156602,91.06182178738528
0.6809154045062921,85.81422436725224,142.6760832156602,91.06182178738528
0.6375448308774888,85.12965650554462,142.6760832156602,91.06182178738528
0.5922355659248663,84.44066745080556,142.6760832156602,91.06182178738528
0.5460654219304275,83.86506280113909,142.6760832156602,91.06182178738528
0.4997305840245468,84.12468605441086,142.6760832156602,91.06182178738528
0.4543926150286039,85.82846575622821,142.6760832156602,91.06182178738528
0.4108568085084698,89.71120194178921,142.6760832156602,91.06182178738528
0.3701135554174259,95.9365404687444,142.6760832156602,91.06182178738528
0.3324492166944209,103.6931706744775,142.6760832156602,91.06182178738528
0.2987376269631596,112.08234968402468,142.6760832156602,91.06182178738528
0.2686572409635007,120.02298534554518,142.6760832156602,91.06182178738528
0.2427992880100708,126.8761247641812,142.6760832156602,91.06182178738528
0.2210200292995042,132.68027775697286,142.6760832156602,91.06182178738528
0.2035917944848613,137.18766493456053,142.6760832156602,91.06182178738528
0.1894643737111249,140.37930529201896,142.6760832156602,91.06182178738528
0.1786718299285089,142.09334750503257,142.6760832156602,91.06182178738528
0.1707029361284198,142.5298141475999,142.5298141475999,91.06182178738528
0.1652421942427029,141.82857336473853,142.5298141475999,91.06182178738528
0.161217992058002,140.54421620787753,142.5298141475999,91.06182178738528
0.1581981353441158,138.86230722225855,142.5298141475999,91.06182178738528
0.1557686070892638,136.8610138338861,142.5298141475999,91.06182178738528
0.1533249448166305,134.71260923290737,142.5298141475999,91.06182178738528
0.150333269363962,132.35556725448947,142.5298141475999,91.06182178738528
0.1462577726475773,129.91228835421072,142.5298141475999,91.06182178738528
0.1411220240337569,127.34829116823924,142.5298141475999,91.06182178738528
0.1344451763987404,124.72048750311744,142.5298141475999,91.06182178738528
0.1269450947588325,121.89741107808366,142.5298141475999,91.06182178738528
0.1184033965882316,118.89393884547992,142.5298141475999,91.06182178738528
0.1094665895230534,115.71162644622,142.5298141475999,91.06182178738528
0.1002560799365907,112.32482952555614,142.5298141475999,91.06182178738528
0.0923371587573357,108.87735487886384,142.5298141475999,91.06182178738528
0.086111637753461,105.39268913557456,142.5298141475999,91.06182178738528
0.0824682711321781,102.1634762055746,142.5298141475999,91.06182178738528
0.0821727235302256,99.27242558190189,142.5298141475999,91.06182178738528
0.0862977891266236,96.78284138645368,142.5298141475999,91.06182178738528
0.0956585641958033,94.82172834235008,142.5298141475999,91.06182178738528
0.110815208973688,93.26139194570897,142.5298141475999,91.06182178738528
0.1326266498642354,92.18269974851188,142.5298141475999,91.06182178738528
0.1605534120182063,91.42115644304948,142.5298141475999,91.06182178738528
0.1952245918786182,90.97594557120632,142.5298141475999,91.06182178738528
0.2357519147087852,90.77812902886456,142.5298141475999,91.06182178738528
0.2822396154494285,90.7776855140381,142.5298141475999,91.06182178738528
0.3326195096934078,90.91028689356142,142.5298141475999,91.06182178738528
0.3865177330681887,91.12139205286483,142.5298141475999,91.06182178738528
0.4420692316210814,91.39910616472838,142.5298141475999,91.06182178738528
0.4982929875530952,91.69073810914033,142.5298141475999,91.06182178738528
0.5528268249681806,91.9542299088756,142.5298141475999,91.06182178738528
0.6043273102493373,92.14935279442837,142.5298141475999,91.06182178738528
0.6517011143930753,92.22382790064302,142.5298141475999,91.06182178738528
0.6933612215216984,92.1350993309948,142.5298141475999,91.06182178738528
0.7285721222446555,91.93949757460014,142.5298141475999,91.06182178738528
0.7559842477221731,91.60202272371887,142.5298141475999,91.06182178738528
0.7756293326367669,91.14329205098534,142.5298141475999,91.06182178738528
0.7864614534360854,90.55932251069588,142.5298141475999,91.06182178738528
0.7894462436392934,89.93551803719153,142.5298141475999,91.06182178738528
0.7840334013993755,89.28257572199071,142.5298141475999,91.06182178738528
0.7711575486748851,88.56288810385364,142.5298141475999,91.06182178738528
0.7508240071694747,87.80247778564063,142.5298141475999,91.06182178738528
0.724673849346037,87.06007165513749,142.5298141475999,91.06182178738528
0.6931160959439379,86.34649042672719,142.5298141475999,91.06182178738528
0.6572290569657069,85.58150912930688,142.5298141475999,91.06182178738528
0.6178179544781424,84.78072525863847,142.5298141475999,91.06182178738528
0.5764961638317352,84.0372386223317,142.5298141475999,91.06182178738528
0.5342105316740909,83.63616529625432,142.5298141475999,91.06182178738528
0.4916017626246504,84.45243940205964,142.5298141475999,91.06182178738528
0.4497657951620756,87.13129876727515,142.5298141475999,91.06182178738528
0.409442631982127,92.18024982318248,142.5298141475999,91.06182178738528
0.3715569160475261,99.39409513618727,142.5298141475999,91.06182178738528
0.336522023858464,107.67484209492233,142.5298141475999,91.06182178738528
0.3051660175046105,116.05822928807704,142.5298141475999,91.06182178738528
0.2771978070603263,123.62479920291972,142.5298141475999,91.06182178738528
0.2532182844231654,129.93567882655577,142.5298141475999,91.06182178738528
0.2330565984552279,135.11208174757098,142.5298141475999,91.06182178738528
0.2169942433371259,138.90148173702258,142.5298141475999,91.06182178738528
0.2040790590320625,141.31552771220885,142.5298141475999,91.06182178738528
0.1943532608225592,142.22523542685363,142.22523542685363,91.06182178738528
0.187264865850439,141.99736984897177,142.22523542685363,91.06182178738528
0.1825267781594581,140.84022108311171,142.22523542685363,91.06182178738528
0.1789569891593753,139.22843880514085,142.22523542685363,91.06182178738528
0.1761170734145686,137.4267047638436,142.22523542685363,91.06182178738528
0.1737255764843111,135.30841416116266,142.22523542685363,91.06182178738528
0.1711584412166129,133.04278700159674,142.22523542685363,91.06182178738528
0.1680450564746869,130.56931008956968,142.22523542685363,91.06182178738528
0.1638921724816894,127.9548993930474,142.22523542685363,91.06182178738528
0.1587389352731843,125.24126172822368,142.22523542685363,91.06182178738528
0.1521753072250921,122.46165036080497,142.22523542685363,91.06182178738528
0.1450043862209372,119.49266478863902,142.22523542685363,91.06182178738528
0.1370632784826352,116.35535537114303,142.22523542685363,91.06182178738528
0.1290877664285019,113.0562138580335,142.22523542685363,91.06182178738528
0.1212672778108621,109.5748009279444,142.22523542685363,91.06182178738528
0.115103537056553,106.08921681022834,142.22523542685363,91.06182178738528
0.1110582228579574,102.61819455510847,142.22523542685363,91.06182178738528
0.1100098127577484,99.43974201723356,142.22523542685363,91.06182178738528
0.1127423413015297,96.64221787010548,142.22523542685363,91.06182178738528
0.120293319686549,94.26216154860764,142.22523542685363,91.06182178738528
0.133484558282668,92.43009014461116,142.22523542685363,91.06182178738528
0.1526115252339547,90.99395199725834,142.22523542685363,91.06182178738528
0.1785006708982361,90.02685682653244,142.22523542685363,91.06182178738528
0.2103638256018441,89.36904740164198,142.22523542685363,91.06182178738528
0.2487119654978584,89.00909406645548,142.22523542685363,91.06182178738528
0.2924687426297109,88.92298707854565,142.22523542685363,91.06182178738528
0.3415836177646959,89.06024990722926,142.22523542685363,91.06182178738528
0.3937785066781958,89.30821754849057,142.22523542685363,91.06182178738528
0.4485114345195078,89.6192386451797,142.22523542685363,91.06182178738528
0.5039865927907604,89.9829160038773,142.22523542685363,91.06182178738528
0.5590681663363596,90.33705130077712,142.22523542685363,91.06182178738528
0.6116867899009862,90.64341452835906,142.22523542685363,91.06182178738528
0.6604525898198602,90.85748603228885,142.22523542685363,91.06182178738528
0.7044226965625996,90.92684185872032,142.22523542685363,90.92684185872032
0.7420741766089008,90.80710125828574,142.22523542685363,90.92684185872032
0.7727959182563187,90.56687301541828,142.22523542685363,90.92684185872032
0.795327808445385,90.17114215914914,142.22523542685363,90.92684185872032
0.8099238176246262,89.64455796571686,142.22523542685363,90.92684185872032
0.815649787515192,88.98690682772636,142.22523542685363,90.92684185872032
0.8135681842268395,88.30359205966363,142.22523542685363,90.92684185872032
0.8032689208863963,87.61065038732961,142.22523542685363,90.92684185872032
0.785675858915901,86.86882537975363,142.22523542685363,90.92684185872032
0.7609055071977705,86.11280320773632,142.22523542685363,90.92684185872032
0.730648566523363,85.3926142647691,142.22523542685363,90.92684185872032
0.6953860087026432,84.722907940093,142.22523542685363,90.92684185872032
0.6561392266443586,84.00047499946888,142.22523542685363,90.92684185872032
0.6137676669741987,83.23868786463487,142.22523542685363,90.92684185872032
0.5697296089828583,82.64586143664448,142.22523542685363,90.92684185872032
0.5249741922149183,82.66508527193979,142.22523542685363,90.92684185872032
0.480208174682649,84.32263042862134,142.22523542685363,90.92684185872032
0.4364945549275633,88.20195089524373,142.22523542685363,90.92684185872032
0.3946738650799853,94.54411076141318,142.22523542685363,90.92684185872032
0.3556809580161721,102.77778785432209,142.22523542685363,90.92684185872032
0.3198058235504176,111.555583188838,142.22523542685363,90.92684185872032
0.287896353382693,119.92646692275946,142.22523542685363,90.92684185872032
0.2595826269476989,127.1752442411708,142.22523542685363,90.92684185872032
0.2354345621101089,133.02709375698723,142.22523542685363,90.92684185872032
0.2152281506191921,137.59270714747805,142.22523542685363,90.92684185872032
0.1992005312122104,140.63881813752823,142.22523542685363,90.92684185872032
0.1862268128210411,142.3282289573113,142.22523542685363,90.92684185872032
0.1762897860004585,142.593594328905,142.593594328905,90.92684185872032
0.1688417366406097,141.8638126970561,142.593594328905,90.92684185872032
0.1635115842150726,140.35199991647465,142.593594328905,90.92684185872032
0.1592500697580039,138.43648293643778,142.593594328905,90.92684185872032
0.1555829976257098,136.34688428037373,142.593594328905,90.92684185872032
0.1521859401276602,133.98729607953115,142.593594328905,90.92684185872032
0.1484434201081564,131.56616439458276,142.593594328905,90.92684185872032
0.1439741543890118,128.9759890802736,142.593594328905,90.92684185872032
0.1382749786118426,126.30822656959587,142.593594328905,90.92684185872032
0.1315661249266761,123.55669329645455,142.593594328905,90.92684185872032
0.1234479392198757,120.7523228351545,142.593594328905,90.92684185872032
0.1148443746066722,117.714353458424,142.593594328905,90.92684185872032
